Lead_Sol,Lead_Med_Gas,Lead_Lat_Gas,Lead_Lat_Ham,Lead_TA,Lead_Vas_Med,Lead_Vas_Lat,Lead_Glut_Med,Trail_Sol,Trail_Med_Gas,Trail_Lat_Gas,Trail_Lat_Ham,Trail_TA,Trail_Vas_Med,Trail_Vas_Lat,Trail_Glut_Med
0.1616492219369299,0.2096407933052564,0.2124616324810437,0.1485265748198258,0.1384045068135764,0.0396663658161917,0.0704470252728568,0.0710399976769966,0.0146105212311112,0.027259512257475,0.014362386136842,0.0455868618511247,0.0937817623997943,0.0812693661650615,0.0915541567909229,0.167324065018409
0.1547467131257879,0.2017802320236091,0.2043291118656565,0.1435345107676122,0.1423924138924817,0.0422170644683873,0.0789303094377762,0.0736408922505784,0.0162184512001228,0.027936565773541,0.0148509970581037,0.046280076494774,0.0981389157504641,0.0807479657869141,0.0903787332685705,0.1585041110150717
0.1476671108533139,0.1929580870349349,0.1961431027144741,0.1378440798018154,0.145450550510104,0.0447961185498194,0.0876165646974983,0.0757535620800487,0.017966732345796,0.0287319823746711,0.0152447272155584,0.0468869887277201,0.1023997484985527,0.0797939674433732,0.0890392349972707,0.1489185878288005
0.1407970481744249,0.1834926389910026,0.1880644810973116,0.1316101579011286,0.1473783935086919,0.0473454209688893,0.0962771213378784,0.077308468439455,0.0199216230644131,0.0296887571298405,0.0155821190975862,0.0473785244277792,0.1063553878935536,0.0783715579491403,0.0876257556363024,0.138809238851802
0.1344854508569604,0.1737460069705294,0.1801960935972186,0.125021146800924,0.1480700232767356,0.0498278716470989,0.1047307729200513,0.0782330240206614,0.022133138054441,0.0308104704112451,0.0159023942663189,0.047789282738471,0.1097749554232029,0.0764586509493021,0.0861799725785462,0.1284085496639286
0.1289768453335446,0.1640558259369155,0.1726396036799701,0.1183203002086213,0.1475855222268888,0.0522229558056674,0.1128350359067714,0.0785019272449995,0.024610687330118,0.0320804275259414,0.016230016137478,0.0481104015123615,0.1124174075837348,0.0740570828836369,0.0847196198842259,0.1179142817524011
0.124295733658017,0.1546381605295497,0.1654012817958123,0.1117271320876693,0.1461711348357875,0.0545191368446502,0.1204760980795638,0.0781565028049568,0.0273228413214054,0.033485277397389,0.0165776107962873,0.048289939700637,0.1142230144735852,0.0712647772250426,0.0832966720135507,0.1075681147816308
0.1202930191665517,0.1456104164606537,0.1584396251696339,0.105468749163941,0.1441774808345003,0.0567274125251479,0.1275669615401257,0.0772314023062285,0.0301775693926185,0.0349794654884469,0.0169377176826745,0.0482674846218322,0.115427098280634,0.0681880203865102,0.081957196599997,0.0977391081202605
0.1167963563471374,0.137078819305591,0.1517196065828654,0.0997541655551124,0.1419100706253811,0.0588621342057075,0.1340722853170857,0.0758004860567992,0.0330002524067193,0.0364424827222924,0.017267050595267,0.0480030507520389,0.1163056049626099,0.0649172525537712,0.0806443150752032,0.0888483865722523
0.113623005211764,0.1291727143831635,0.1452344091395662,0.0947879562088892,0.1395541254893978,0.0609140103040548,0.1399969096184227,0.0739999072570878,0.0355332301299045,0.0376746728137615,0.0174837601400485,0.0474788628942263,0.1171314665988156,0.0615394147071924,0.0792174826633323,0.0812859263806634
0.1105615751224361,0.1220229193475296,0.1389895992388617,0.0907469953199881,0.1372084212010138,0.0628543681987097,0.1453542297720925,0.0719377785276831,0.0374750367886383,0.0384696823418533,0.017485169253886,0.0466851706125393,0.118109119957585,0.0581728185399652,0.077579353424542,0.075343960669628
0.1074322849799244,0.115715767396523,0.1329335232221744,0.0877148491479963,0.134940437334647,0.0646681868067746,0.1501828629668793,0.0697050524277818,0.0385818443972068,0.0387349746835027,0.0172105845649556,0.0456465382341052,0.1193649170517271,0.0549824804421096,0.0756912191056105,0.0711748634103426
0.1041568049686898,0.110309470655212,0.1269968495577605,0.0857191471645203,0.1327988405957306,0.0663608447311399,0.1544750586287361,0.067444499440461,0.0387505792040782,0.0385147282639311,0.0166969790105328,0.0443671425487855,0.1208278326451171,0.0521128183510681,0.073554053423608,0.0688361945421414
0.1008449477521441,0.1058239505526718,0.1212004706671216,0.084749212155612,0.1307890897195133,0.0679437596640137,0.1581014052526946,0.0652961293584044,0.0379838976605359,0.0378531322684006,0.0159915587773924,0.0428258965690751,0.1222611193441914,0.0496151664319075,0.0710996573450683,0.0682920026382652
0.0977263023399461,0.1022341502616881,0.1156592366827073,0.0847643899749651,0.1289412484080191,0.0694157499515301,0.1608721997841623,0.0633474783748838,0.0363705425449814,0.0368176403416448,0.0151413804156521,0.0410289533946556,0.123409655702488,0.0474522225205122,0.0682589120454407,0.0693582440305337
0.0949882155784,0.0994865158967932,0.1105321898979837,0.0857587990843166,0.1273458649465419,0.0707131380042486,0.1626227505038943,0.0616369890107239,0.0340979187339238,0.0355326015642728,0.0142409771090434,0.0390492597778362,0.1239551395079536,0.045577530277225,0.0650374190036057,0.0716521945001676
0.0927758558959597,0.0975144728983586,0.1059153320183592,0.0876895074683373,0.1260881719795138,0.0717427056804914,0.1633380038079558,0.0601906386545861,0.0315350593468196,0.0341505198639715,0.013422940354209,0.0370242769609586,0.1236073421063335,0.0439610013154338,0.0614399792000576,0.0746226919954055
0.0912126565000239,0.0962499581138623,0.1018643212177837,0.0904442720474439,0.1251693650000234,0.0724316159486409,0.1631219649103832,0.0590266371102243,0.0291566184524545,0.0329127903360087,0.0128326459070901,0.0351171001414433,0.1221886300872975,0.0425487291569335,0.0575349693969175,0.0776348251544478
0.090345401001474,0.0955826659198879,0.0983942987317924,0.0938934869855272,0.1244862347540896,0.0727469189710592,0.1620322683950764,0.0581429893251502,0.0274456620546142,0.0321191505585659,0.0126114524685536,0.0334691911186403,0.1196611471081722,0.0412361810265642,0.0534732757370674,0.0801280271459586
0.0901176343608608,0.0953634092958911,0.0955212464481063,0.0979141902987985,0.1239024214491304,0.0727126096661691,0.1600145262671836,0.0575101634771229,0.0268186959293795,0.0320456632609056,0.0128817338406835,0.0321487891069915,0.1161774670801795,0.039890132956352,0.0494142222697907,0.0818490575792742
0.0904195048854707,0.0954483779882863,0.0932968106958153,0.1023707849134678,0.1232930663658116,0.0723640337222716,0.1570016508501916,0.0570944919850833,0.0275977730808682,0.0329046616937887,0.0137426406636036,0.0311457383255737,0.112104658011373,0.0383418121823617,0.0454537908344706,0.0826606996156752
0.0911485448562929,0.0957467325861249,0.0918088365824995,0.1070706189945007,0.1225839892018238,0.0717093620786514,0.1530802197990309,0.0568532112609403,0.0300084004067789,0.0348314882631534,0.0152641773924706,0.0304155089594098,0.1077820812922008,0.0364304971394099,0.0416110340954733,0.0824955783911613
0.0921849155817488,0.0961462784358184,0.0910934576120415,0.1117657462917867,0.121764171835347,0.0707697689593201,0.1484536319726356,0.0567166457737201,0.0341743791399764,0.0378876204342429,0.0174886866844046,0.029934151745189,0.1033276040308554,0.0341273916793412,0.037908378095503,0.0813881852201726
0.0933620026798028,0.0964975409195189,0.0910822780659248,0.1162149078239657,0.1208319682900376,0.0695826580718183,0.1432937751184259,0.0566026488489743,0.0401041942196821,0.0420464525982312,0.0204347666791683,0.0296615052671061,0.0987157934328064,0.0315439278334877,0.0344128400616589,0.0794080348190413
0.0945049326100449,0.096709068632313,0.0916694836682305,0.1202317807755476,0.1197383435350417,0.0681391434697293,0.1376105515371051,0.0564228952904743,0.0476817298931017,0.0472301753434924,0.0240960893784318,0.0295388272677531,0.0938476886332614,0.0288214091691653,0.0311451645671017,0.0765792965641818
0.0955550265576092,0.0968251552611644,0.0927680150983244,0.1237191842159246,0.1183703437278061,0.066381302621436,0.1313281787450149,0.0561026406721626,0.0566425412841585,0.0533006717655769,0.0284204938989161,0.0295216638221069,0.0885711985183162,0.026121891162302,0.0280767200615844,0.072967730269892
0.0966317843086519,0.0970021563020951,0.0943869862642676,0.1266198534727509,0.116623443875685,0.0642734297179293,0.1244651158284221,0.055586045135688,0.0665473337366248,0.0599989431470501,0.0333037736273835,0.0295678693037946,0.0827571390380649,0.0235858491737439,0.0252305819125606,0.0687961155509899
0.0979027097495483,0.0973874548187732,0.0965148602504951,0.1289150800486375,0.1144692068534497,0.0618191486461054,0.1171984966411436,0.054828186255914,0.0768593573634433,0.066996115144929,0.0385849748546974,0.0296359531966508,0.0764631918983909,0.021334118162385,0.0227207542240798,0.064444899424321
0.0995091838771118,0.0980430823653674,0.0990443139434671,0.1305917582908657,0.1119243264461866,0.0590511142939431,0.1098164853948822,0.0538124057153871,0.0871077020205726,0.0740047919141875,0.0440666327810626,0.0296646383059123,0.069900868279139,0.0194600061698423,0.0206869390572163,0.0603122967761543
0.101527269806185,0.0989438329930565,0.1018228645928639,0.1316502765537435,0.1090040349420419,0.0560130258114658,0.1025474565136468,0.0526116872747271,0.0969375166091701,0.0808865770351631,0.0496122298456162,0.0295847411342672,0.063363763038564,0.0180338471652036,0.0192543681253941,0.0568360225696461
0.1039229535491339,0.0999749653783913,0.1047381795721961,0.1322111994603388,0.1057481072805306,0.0527681024716484,0.0955298464863778,0.0513103903136063,0.1060989269126228,0.0875390459366853,0.0551703912160523,0.0293089874413256,0.0571377647170852,0.0171129885408184,0.0185201123098064,0.0543931824006517
0.1065805713337799,0.100967822373552,0.1076147080531678,0.1325359796599782,0.1022782385252199,0.0494078729026298,0.0888460439307474,0.0499826707101967,0.1143757244125612,0.0938426959770267,0.0606900763678019,0.0287558646895197,0.0514247563002443,0.0167413687309102,0.0185504985216898,0.0532232664707065
0.1092769181271654,0.1016758435269655,0.1101956365570444,0.1328558478602105,0.0987637466736349,0.0460183912029034,0.0825599848301394,0.0486793092034739,0.1214899990509285,0.0996629573574815,0.0660568016906373,0.0279142493359335,0.0462936041646155,0.0169609157234587,0.0193777040397579,0.0533829104747238
0.1117209085306409,0.1018023176529823,0.1121525690039282,0.1332716947044361,0.0953303416572083,0.0426668495348089,0.0767267953426078,0.047405867819227,0.1271997288822766,0.1049082279051726,0.0710942161933471,0.0268461478904233,0.0417587739628213,0.0178217732552164,0.0210060886747705,0.054738772729887
0.1137021505349737,0.1012280104176728,0.1132802821849184,0.1337567080647129,0.0920313950582364,0.0394058574784091,0.0714115115538285,0.0461447456801732,0.1312671849804269,0.1094896837253763,0.0756164736205351,0.0256411317146574,0.0377982318078949,0.0193852441488783,0.023427642126891,0.0570172015664428
0.1151886266799762,0.1001000042651517,0.113651260516444,0.1341546977205045,0.0888570986663733,0.0362870068058368,0.0666634067916588,0.0449099102457513,0.1334790060166517,0.1132727209560559,0.0795161062177849,0.0243924572027744,0.0343541501130381,0.021702573275408,0.0266168654747678,0.0600237419979052
0.1162247757692536,0.0986670743783038,0.1134550339996074,0.134255825222426,0.0857735200248134,0.0333746398775516,0.0625425304274125,0.0437544708552628,0.1338976214464082,0.1162417036008739,0.0827346274675668,0.0231896766601583,0.0313793462005967,0.0248008765115647,0.0305273258623902,0.0637612107080729
0.1167783107417876,0.0971247158156232,0.1128516973842745,0.1339357849469596,0.082812484430402,0.0307376922137883,0.0590807593744697,0.0427533611319829,0.1327366002040782,0.118388548229442,0.0851976704419822,0.0220995441399995,0.0288480169753493,0.0286856842531945,0.0350960126798021,0.0681845134976395
0.116755839083143,0.0955615542461714,0.1119625902365372,0.1331878866934508,0.0800405437866212,0.0284318669580015,0.0562436190917306,0.0420017893491024,0.1301969390312633,0.1196567764487143,0.086918211236594,0.0211666915027126,0.0267337548903908,0.0333376124758965,0.0403038427613831,0.0730619793646546
0.1160744058451291,0.0939998834978426,0.1108637779634289,0.1321175421768033,0.0775698251173282,0.0264842376232718,0.0539493684963781,0.0415768518689629,0.1264746380833872,0.1199288681203491,0.0880024084122288,0.0204328157171364,0.0249937373557652,0.0387269047804852,0.0461512169055838,0.0779876043983674
0.1146441232438402,0.092448487857294,0.1095543536376564,0.130842628606028,0.0755342789952397,0.0248875713200834,0.0520871015720214,0.0415297795550255,0.1218606702869809,0.1192009407403228,0.0885283590048403,0.0199385009297354,0.0236030995532339,0.0448913543379641,0.0525690562355791,0.0826992600747898
0.1124141414675067,0.0908804212899286,0.1079669998801323,0.1295037791262918,0.0740582665209946,0.0236126944467663,0.0505424239013197,0.0418809211560546,0.1166711908022761,0.1176739209560356,0.0885444458954839,0.0196869270288884,0.0225679464682241,0.0519624007094957,0.0594358473265737,0.0872449845541949
0.109396304174038,0.0892569978575162,0.1060489765528308,0.1281905317144323,0.073181609086899,0.0226172955254608,0.0492241693353658,0.0426409598425752,0.1112467421156361,0.1155623999586862,0.0881034542000583,0.0196493045412732,0.021879235098748,0.0600623189940515,0.0666239546350906,0.091674521165069
0.1057717342677557,0.0875775397255807,0.1038783832523479,0.1269511034667661,0.0728282556361119,0.0218532053513355,0.0480499643389679,0.0438255966279752,0.1059922921882345,0.1129659065510379,0.0873238423882611,0.0198170301207517,0.0215142761325995,0.0691924097172846,0.0740239942879054,0.0960583588837745
0.1017994381053151,0.0858529081509556,0.1015998959060204,0.1258581980540943,0.0728324204895847,0.0212737462923639,0.0469447082449799,0.0454315093343863,0.1011910580878682,0.1099272248392163,0.0863052742185628,0.0202107819764232,0.0214381800611013,0.0791864854154822,0.0815188357615344,0.1004114068639954
0.0977319934340966,0.0841280293811749,0.0993494715478836,0.1249102554796719,0.07304393205278,0.0208305264430875,0.0458196640759791,0.0474178592125204,0.0969894089761189,0.106553948897894,0.0850709957204656,0.0208441875948583,0.0216314427248651,0.0897440805238996,0.0889629840735009,0.1046761412902342
0.0937947927325955,0.0825502901973562,0.0973386453241778,0.1240768524904754,0.0733881079396766,0.0204738360134317,0.044566494190125,0.0497028237650361,0.0935579914887271,0.1030715417684889,0.0837234512601896,0.0217213892708154,0.0221248384785203,0.1004950730455819,0.0961949853534031,0.108801603774201
0.0902213241737868,0.0813911811208691,0.0958453279539022,0.1232718555054098,0.0738152676224783,0.020153316898315,0.0430976477200804,0.05218287786846,0.0911551873504121,0.0998110753578555,0.0824196161458821,0.0228255869003704,0.0229459339500105,0.1110780718408805,0.1030810467668622,0.112619488807479
0.0872334686970818,0.0808918107225925,0.0950926657252348,0.1223641417151932,0.0742292318202369,0.0198198784805244,0.0413827512242805,0.0547895681019655,0.0899859644468321,0.0970698928710762,0.0813254767844535,0.0241155644613827,0.0241107319988002,0.1212405649841458,0.1095549454128542,0.1159260499709688
0.0850523790814163,0.0812003366106365,0.0952323315197863,0.1212367676845651,0.0745120110639402,0.0194367213120056,0.0394697669320521,0.057483450334621,0.0901340993214507,0.0950970896929495,0.0805474549865622,0.025545080443743,0.0256693938808984,0.1308744103267422,0.1155662112387293,0.1185954585885525
0.0839073911988039,0.0823820079837369,0.0963245919139415,0.1198075592310532,0.0746133173942614,0.0189751024219647,0.0374281559191108,0.0601830843273127,0.0915171836568481,0.0940368420718442,0.0801217117474892,0.0270735887340712,0.027699994984222,0.1398746572723497,0.1209697144283551,0.1205477751659347
0.0839636967182334,0.0844556893552633,0.098330135794012,0.1180197033659026,0.0745253175470508,0.0184223432828325,0.0353147211772141,0.0627674343191874,0.0939402314790462,0.0939003090814219,0.0800680923696573,0.0286668384598515,0.0302672933672017,0.1482441755429723,0.1254850753497648,0.1216823930957703
0.0852827843356388,0.0874369030793957,0.1011767916649685,0.1158323171754,0.0742016895690914,0.0177947372453713,0.0331848060355656,0.0651187675892372,0.0971096989555294,0.094542038652161,0.0802988330018974,0.0303021530964031,0.033415773688059,0.1559589399044124,0.1288291803133997,0.1219107464226137
0.0878721014029211,0.0913192705525431,0.1047654348993943,0.1132698415702647,0.0735706955194925,0.0171257652126556,0.031099826627503,0.0671844754969359,0.1007211794963637,0.0957429971354353,0.080643581276725,0.0319346430747626,0.0371484144604094,0.1628425884139247,0.1308653765761888,0.1212130520127846
0.0916777424899137,0.0960224929377857,0.1089647679523984,0.110365653966771,0.0726037953170255,0.0164557374750582,0.0291220091262246,0.0689166650443155,0.1045202062393959,0.0972432119067593,0.0809798211497938,0.0335153621718134,0.0414235693888353,0.1688492127308545,0.1316593962450529,0.1196181868581278
0.0965431057985915,0.1013608043329069,0.1136136638497545,0.1071821916098244,0.0713328043064759,0.0158233651896126,0.0273045874285013,0.0702423353669707,0.108135420367132,0.0987096365918216,0.0811898265605866,0.0350163031344166,0.0462115616377292,0.1739829355534968,0.1314394680321981,0.117242967825196
0.1022122831758117,0.1070584872885835,0.1185439225946327,0.1038284172899311,0.0698147492454053,0.0152531691295896,0.0256717546577863,0.0710643640861427,0.1111691724844216,0.0998610452029464,0.0811696678381782,0.0364442903653945,0.0515220557791808,0.1784075604602578,0.1304289653581532,0.114282435917783
0.1084213621980078,0.1128331346400491,0.1236245669721141,0.1003904414091862,0.0681365758454579,0.0147534313374159,0.0242203738416663,0.0712927201410424,0.1134258032441802,0.1005335681600685,0.0809041055309073,0.0378385084550847,0.0573965873460155,0.1825241182758687,0.1288040332124889,0.1107625789249469
0.1148921884055033,0.1184882904584746,0.1287312379061669,0.0968774790032128,0.0664188966543399,0.0143182948888278,0.0229290582774482,0.0708784647133096,0.1148523154442217,0.1005828453616123,0.0803751765699772,0.0392042864229636,0.0638778129228394,0.1865778858153332,0.1267263897368441,0.1065302967145864
0.121323875777297,0.1238854410849052,0.1337552706706547,0.0932672733406412,0.0647755126350133,0.0139340648180122,0.0217611381775137,0.0698242815512409,0.1153555127079718,0.099896892905022,0.0794634776557551,0.0404761663544393,0.0709770242819599,0.1905136698348919,0.1244189561737746,0.1016278225267099
0.1274076725095024,0.1289802458602785,0.1386130461596527,0.089575706326928,0.0632945998627775,0.0135861306887357,0.0206824205702232,0.0681547703489698,0.1146611751014485,0.0984092648661127,0.077992279049737,0.0415384593008871,0.0786654257546332,0.1941940572628696,0.1221324467081448,0.0963180174669176
0.1328055739575286,0.1338132809842008,0.1431583629671778,0.0858693541772318,0.0620511044160181,0.0132623717250245,0.0196762099518318,0.0659236996749262,0.1124360153013195,0.0960245675782499,0.0757343113697539,0.0422726434653105,0.0869277952735506,0.197594964077974,0.1200526080336042,0.0908075300452439
0.1372085667203129,0.1384321254243899,0.1472075195785048,0.0822327797845685,0.0610833823506493,0.0129529095570576,0.0187452168588968,0.0631920874159453,0.1083834476267735,0.0925837085896706,0.0724837359820825,0.0426009469954904,0.0957929473142765,0.2007934939254281,0.1183317662554313,0.0852263719606262
0.1405168781821001,0.1428472121832411,0.1506327613829962,0.0787515842903688,0.0603625170081482,0.0126516462551197,0.0178990730317698,0.0600157439528607,0.1023537640622713,0.0880026734790503,0.0682091230621658,0.0425443269182315,0.1052078294094102,0.2039752938687959,0.1170901148398194,0.0795753960650382
0.1427459200719963,0.1469920249909697,0.1534004651834889,0.0755035747971243,0.0598002567667908,0.0123518473775268,0.0171438347207252,0.0564624497908046,0.0945660907212136,0.0824527742888112,0.0630777219183767,0.0421439160083408,0.1149826884127313,0.2072376374308899,0.1163657262176941,0.0738569055186327
0.1439937539024502,0.1508308790736026,0.1554717316995542,0.0725128439814264,0.0592651280974812,0.0120523130376315,0.0164786234204405,0.05261798088314,0.0855661161130292,0.0762250497640373,0.0573126958460568,0.0414337293087463,0.1247690821357537,0.2104345296968999,0.1162394117958941,0.0682260616591439
0.1443590803668689,0.1543417438279775,0.1567688143234329,0.0697467591718856,0.0586130268729506,0.0117605412325564,0.0159035499041981,0.0485586964274979,0.0758696349557399,0.0696092266892628,0.0511567893817992,0.0404900910853839,0.1342126521175519,0.213528167210519,0.116920391935793,0.0628221094615648
0.143929068244752,0.1574342028697656,0.1572572518928689,0.0671115625185935,0.0577532423899675,0.0114824144694243,0.0154154895626641,0.0443703452039642,0.0658865445592419,0.0628980820781811,0.0449052819867661,0.0394467582628578,0.1429308669241791,0.2166949504902051,0.1185900092361453,0.0577093243944543
0.1428257810277904,0.1600068134317999,0.1569129103861511,0.0644983963729269,0.0566369942677432,0.0112204904374906,0.0150076788972456,0.0401559373850383,0.0560298699694778,0.0563576527102991,0.0388097404308242,0.0384390112492689,0.1504899891348639,0.2198566035028954,0.1212527839173356,0.0529200541600874
0.1412040914574456,0.1620024796977993,0.1557617848523064,0.0618340416935709,0.0552271784995754,0.0109766019988208,0.0146699833039303,0.0360163324837558,0.0466771412845392,0.0501602664767251,0.033065742111103,0.0375493675407641,0.1564110344724749,0.2225433945654013,0.1247117194697932,0.048461534231787
0.1391892715641936,0.1633129351296384,0.153860013099143,0.0590619849764692,0.0534895709756307,0.010751088504774,0.0143902017217143,0.0320336943366484,0.0381170066269901,0.0443909267741641,0.0278265567661781,0.0368177345203719,0.1603822264425093,0.2239843298978235,0.1285771799686905,0.0442853166716859
0.136825837270832,0.1637400699226485,0.1511746545595426,0.0561626873650821,0.0514124949694186,0.0105432058699607,0.0141521286936303,0.028282971241633,0.0305271963268915,0.0391168932322443,0.0231859641882647,0.0362592940441883,0.1621667939368405,0.2233490031954255,0.1322660730557497,0.0403217575248203
0.1340927106383953,0.1630917911140936,0.147613931042729,0.0531561249817404,0.0490297274166057,0.0103535106394948,0.0139373481631221,0.0248300270403912,0.0240065392502929,0.0344502404034649,0.01919253039957,0.0358575894590289,0.1616495444152082,0.2201608575705708,0.1351393024913706,0.0365271841671164
0.1310155419306609,0.1612273140617936,0.1431025740932127,0.0500697700571559,0.0463983648090824,0.0101845083583828,0.0137318010471493,0.0217292240932296,0.0185783799146452,0.0304614841889131,0.0158683218205204,0.0355416124209845,0.1589215201124475,0.2141325601973958,0.1366800303071718,0.0328824791868766
0.1275788499425989,0.1581262788193283,0.1376782857375387,0.0468870445794874,0.0435824458019954,0.0100389715043084,0.0135300276952626,0.0190148877156767,0.0141851590834971,0.0271602792609785,0.0132192364769109,0.0352076959489507,0.1544147873813536,0.2052159343146145,0.1366799192216813,0.0294290388994312
0.1236957111107533,0.1539007896335842,0.131506491298936,0.0435788280037569,0.0406548389603886,0.0099160304103558,0.0133272955078223,0.0166967478301321,0.0107242016135939,0.0245273889367467,0.0112274606289566,0.0347928109403328,0.1486689861722047,0.1938004161440241,0.1351573309047044,0.0262273388247681
0.119282508280961,0.1486311851887252,0.1247166209920269,0.0401300592771877,0.0376648141048883,0.0098103389383195,0.0131201628010058,0.0147685540941922,0.0080993835703585,0.0225367657711942,0.0098572047430119,0.0343204934511339,0.1420854472225671,0.1804829131112881,0.132281327417999,0.0233144890761967
0.1143613587833142,0.1423822673728123,0.1174463367888089,0.0365913525132528,0.0346277661937018,0.0097177304128966,0.0129063818861709,0.0132065598510915,0.0062243760181089,0.021136894264661,0.0090627966689444,0.0338528646169801,0.1349430679705439,0.1657547250387872,0.1282040284789615,0.020707959718941
0.1090122780730449,0.1352419297327227,0.1098984814850677,0.033070286218483,0.0315637367074665,0.009639645288543,0.0126907038524576,0.0119779653705727,0.00500224110971,0.0202533066108644,0.0088157804506054,0.0334494061478687,0.1275751875192691,0.150010915765464,0.1229929148342256,0.0184363072938899
0.1033366336048499,0.1274045462304424,0.1022529634739533,0.0296736092294374,0.0285265227593683,0.0095739508958848,0.0124784408749454,0.0110446291027104,0.004335710215629,0.0198053965482609,0.0091016966557719,0.0331722399489276,0.1202899867080067,0.1337320112547966,0.1165092966937009,0.0165316427550991
0.0974155269640062,0.119092434076015,0.094617161334428,0.0264722991173472,0.0255960377691046,0.0095172578916554,0.01227190403824,0.0103634375173783,0.0041360858170702,0.019735697235823,0.0099017971794678,0.0330886988331786,0.1133319725858051,0.1173793637640569,0.1085221875292864,0.0150143335162087
0.0912975819271093,0.1105640232714347,0.0870557933621043,0.0235042339460944,0.0228507552016067,0.0094681235960074,0.0120762636184937,0.0098937855688775,0.0043286452629502,0.020027472205973,0.0111947551706472,0.0332222310757338,0.1071237667914001,0.101287859005932,0.0989661904152377,0.0138906619194971
0.0850207857763006,0.1020838188010798,0.0796127459995493,0.0207790642752316,0.0203644908255943,0.0094276901345561,0.011899245686715,0.009597256877575,0.0048510203844908,0.0206648304428772,0.0129470588315209,0.0335519750665659,0.1021508230565192,0.0857808831652916,0.088174949386368,0.0131473627264468
0.078621482886346,0.0938376928537775,0.0723290757386845,0.0182951439545983,0.0182134150138429,0.0093991656943373,0.0117498958283896,0.0094370699420162,0.0056520364409167,0.0216059732257849,0.0151061734884383,0.0340381743869361,0.0987711457259556,0.0712937147803326,0.076763800482049,0.0127568063850669
0.0721532099352611,0.0859496135356488,0.0652439050181868,0.0160496787006187,0.0164700144229753,0.0093881163856018,0.0116345460550248,0.0093819795888523,0.0066863518473292,0.0227990935172002,0.0176192528934641,0.0346452010795696,0.09744633225139,0.0582615411406216,0.0654488414277898,0.0126867272944559
0.0656797930571859,0.0785387061180507,0.0584267314080085,0.014041723509345,0.015205360274939,0.0093958319346333,0.0115583211488668,0.009403000403215,0.00790670105328,0.0241866684698234,0.0204407682914371,0.0353552334849285,0.0986670667361951,0.0469776531604992,0.0548483298003762,0.0129092976806698
0.0592932607006277,0.0717087866271759,0.0520162998163886,0.0122680306963329,0.0144886272029761,0.0094190992359159,0.0115286860591428,0.0094765300393144,0.0092691825985732,0.0257133770785173,0.0234990399212666,0.0361539636055114,0.1027580913206932,0.0375791718898418,0.0453862017779495,0.0133951564965597
0.0530939445945689,0.065508330251094,0.0461403810416609,0.0107225274640548,0.0143887605205089,0.0094536783701185,0.0115493557688619,0.0095816918810609,0.0107305029786132,0.0273358379890909,0.0266948001079881,0.0370193508636585,0.1098953085378203,0.0300571850025108,0.0372883646048246,0.0140996796621147
0.0471604582017893,0.059906809190587,0.0408646593827394,0.0093953169206043,0.0149715016768941,0.0094999640300472,0.0116177896680549,0.0097032864073252,0.0122408899958734,0.0290150587277096,0.0299037321346498,0.0379226694162796,0.1200232109198958,0.0243130746007569,0.0306218547938834,0.014967666908761
0.0415599708837637,0.0548145868108,0.0362035834813335,0.0082727730292653,0.0162972431538521,0.0095597612591293,0.011729622877523,0.0098280305862727,0.0137411654217743,0.0306812564601477,0.0330161882428408,0.0388189839736378,0.1328222767441253,0.0201918742305275,0.0253425010837157,0.0159388737420169
0.0363259408858081,0.0501251701781459,0.032132067511697,0.0073411156754508,0.0184197580130651,0.0096322990632193,0.0118779873339566,0.0099458443658249,0.0151649577611669,0.0322310811241853,0.035902091889207,0.0396300537576155,0.1478654900474184,0.0175144900178797,0.0213319849548133,0.0169498671310982
0.0314789646150839,0.0457461903947874,0.0285973189129713,0.0065875945511757,0.0213875374780397,0.0097190180709881,0.0120517236158063,0.0100515599071263,0.0164408927980948,0.0335910437191434,0.0384017782104528,0.0402424328930642,0.164491092506743,0.0161112328761301,0.0184294101160998,0.0179312275748731
0.0270329134273696,0.0416124178317167,0.0255581189642008,0.005996832931423,0.0252474757886332,0.0098221126985163,0.0122373285157931,0.0101400863359112,0.0174911039460145,0.0347134112876209,0.040356297448383,0.0404966076182087,0.1818217802429861,0.0158310945212301,0.0164842343902215,0.018832639591176
0.0229970884551481,0.0377433728714606,0.0229841572094121,0.0055492159920439,0.0300464985713479,0.0099444295908815,0.0124179124541884,0.0102052867229313,0.0182337054022577,0.0355588822775165,0.0415961664569177,0.0402203104040717,0.1989663721183248,0.0165519701537893,0.0153515686415061,0.0196532627896989
0.0193836946159122,0.0342179500223703,0.0208427250765601,0.0052254219955642,0.0358224893765604,0.0100879252000078,0.0125767030678191,0.0102456172722623,0.0186056843903747,0.0360962783314791,0.0420137007187892,0.0392762958237648,0.2149567606928636,0.0181749947832653,0.0149273533482362,0.020403611552106
0.0162332763452669,0.0310879697796343,0.0191036290877448,0.0050086789055799,0.0425729061374517,0.010250066845859,0.0127060222911484,0.0102634040099031,0.0185984327216294,0.036309188767581,0.0416286399115142,0.0375702137526569,0.228705222222509,0.0206040400638209,0.0151525217266687,0.0210776034230511
0.0135668978085276,0.0283621279987858,0.0177318133601467,0.0048863604519239,0.0502339448566735,0.0104213718937467,0.0128081831135225,0.0102620385540555,0.0182615145465265,0.0362264612311574,0.0404969734802576,0.0351285976547272,0.2393892969697597,0.0237518502624809,0.0159777721626303,0.0216579005333291
0.0113755268496142,0.0260090251008137,0.0166852114300634,0.0048487468907909,0.058660742199525,0.0105894392866092,0.0128908222759025,0.0102472925834671,0.0176645541898745,0.0358781212470619,0.0387019202441625,0.0321214440716644,0.2466544920449605,0.0275207086484071,0.0173606180735011,0.0221337151245385
0.0096285632038224,0.0239885504527843,0.0159244508260981,0.0048879262808054,0.0676255768234719,0.0107435350377677,0.0129620182568367,0.010225708539501,0.0168761719693416,0.035291490649212,0.036394212703467,0.0287855472186175,0.2504362383819256,0.0317912496852561,0.0192566943468234,0.0224982140022517
0.008280600450523,0.0222634967780834,0.0154075729979102,0.0049977074009996,0.0768337956249533,0.0108698579011633,0.0130260464457131,0.0102042523593687,0.0159543305934898,0.0345017149839704,0.0337441802277644,0.0253710929690108,0.2508403313651602,0.0364283636262252,0.0216111887160849,0.0227385926914141
0.0072799175054387,0.0208083648782945,0.0150853152505033,0.0051723288718935,0.0859427641436669,0.0109543648033776,0.0130830211685161,0.0101905153143035,0.0149482237311324,0.0335384909040599,0.0308793545211674,0.0221004890786666,0.2482982904784557,0.0413196162146773,0.0243635897699708,0.0228346329253902
0.0754565958764418,0.2820637660176078,0.085077100101673,0.011902102700161,0.0862364232960349,0.0488016749298602,0.0485366146205822,0.0704619698047717,0.0545118252688059,0.0568368607204091,0.0314108461431375,0.0094787290665533,0.0470236615444031,0.0284508906807028,0.063101754702988,0.0540703080511988
0.0817302945307413,0.2861774744302008,0.0834374118380069,0.0117275869481787,0.0893950218707369,0.055818378128997,0.0525653565324752,0.0751727401515184,0.05441521969617,0.0575987483087415,0.0316927622658126,0.0095780423649379,0.0459389317577056,0.0277457488458134,0.0628996754888701,0.0528056545741109
0.0880663274763407,0.2870985800432454,0.0814185706084773,0.0114333945642097,0.0929960141922611,0.0635188690813091,0.0566537821246767,0.0794867302677928,0.0546825593095287,0.0587197021425172,0.0320662162606567,0.009720140696054,0.0448489410291829,0.0270793234021485,0.0632590832453998,0.0518420457837413
0.0942853138882482,0.2851969156576751,0.0792346680226494,0.011083278047688,0.0969787179906743,0.0716600669425125,0.060895050948895,0.0832395992832713,0.0552316084317608,0.0598973947274464,0.032515697012084,0.0098884393658453,0.0439717600498566,0.0265266268991434,0.0643031395631775,0.0512405002508815
0.100188800278164,0.2806460777253081,0.0771279249922728,0.0107335879720629,0.1011016019570421,0.0797904474995435,0.0653042925924664,0.0863471736164921,0.0558860085239086,0.0607454250842586,0.0329751552061523,0.0100629243489882,0.0434752291081021,0.0261175928004572,0.0659897763727909,0.0510258658657018
0.1055297230627281,0.2736131621546794,0.0752315549017379,0.010442548761061,0.1050283020294604,0.0873483524030376,0.0698877152947146,0.0887255414710896,0.0565045914572407,0.0609387218310496,0.0333475352923645,0.0102125523533468,0.0434574894986502,0.025832993516746,0.068122897459278,0.051154536376897
0.1100233414624702,0.264368006603804,0.0736077407180487,0.0102599912464608,0.108563037271689,0.0938551010395867,0.0746712552156652,0.0902114581059867,0.0569495512236056,0.0602367544992854,0.0335428252813096,0.0103027711357727,0.0439355673366715,0.0256346076828217,0.0704771253913832,0.0514852002165821
0.1133259605924333,0.2529997482278157,0.0723158134225285,0.0102083131630115,0.1116461679497412,0.0990379841789338,0.0796454836066931,0.0906868981261588,0.0570391002042553,0.0586458350229351,0.0335677707414174,0.0103197378646905,0.0448584968518476,0.025534979944731,0.0729442797685718,0.0518727100326552
0.1150260837919289,0.2394430149148233,0.0713587306660066,0.0102826405504171,0.1141044419376722,0.1028151957156457,0.0847744161376548,0.09023176613169,0.0566028279539878,0.0564023201838186,0.0334966146944323,0.0102769231088678,0.04615188849831,0.0255796224402136,0.0755690998474398,0.0522236780966574
0.1146676214936423,0.223404436357191,0.07059600730645,0.0104753794100544,0.1157099806391342,0.1053138069553226,0.0900516980429737,0.0891107162200192,0.0556625513404151,0.0538139850165331,0.0333905881170214,0.0101953177906136,0.0477368770828088,0.0258011205374571,0.0784086131963335,0.0524228439776392
0.1120655733870937,0.2049860277210772,0.0698118749268016,0.0107684366610923,0.1163707399640799,0.1067465922162791,0.0953277020838745,0.0877077670101201,0.0543613026266337,0.0511840051313496,0.0333216624425913,0.0100972107136429,0.0495526164999783,0.0261995164846947,0.081463948422204,0.0524154030728645
0.1075438464851561,0.1850574365757195,0.0688129437109323,0.0111211579024431,0.1160836748788937,0.1071370632074296,0.1003344977008183,0.0864986872157401,0.0529205998795093,0.0488200500320757,0.0333586172965358,0.0100013271038875,0.0515490630416727,0.0267373459048964,0.0846909724626528,0.0522982386012118
0.1018067642148988,0.1649428060257413,0.0675645182414173,0.0114905132761383,0.1148628856590148,0.1065744786647588,0.1047116417396121,0.0859322424810665,0.0516315053931264,0.0469493519047997,0.0335618774617935,0.0099217455024311,0.053676012407861,0.0273442692564135,0.0880039552816525,0.0521716144583606
0.0956057352669617,0.1457989759429866,0.0661917449429534,0.011848294266434,0.1126886979155894,0.1052934712846765,0.1082279854074694,0.0861583399165263,0.0507360921987045,0.0456729084660019,0.0339523371690935,0.0098619396434523,0.0559068757038121,0.027938777713111,0.0913084356320304,0.0520400894072619
0.0897731989777895,0.1284188590881249,0.0649428820651877,0.0121584212780215,0.1096057740511902,0.1033247735189995,0.1109201366066222,0.0870188386178053,0.0503758362418605,0.0449790392000675,0.0345073162829992,0.0098155797337165,0.0582327699746252,0.0284631464093811,0.0944947789785409,0.0518073038995562
0.0849426616255377,0.1129994828555017,0.064078453851087,0.0123682778689078,0.105892572071853,0.1008081356561223,0.1130132896989794,0.0882369218237607,0.0505965740054543,0.0447695372992774,0.0351826294512497,0.0097726407267154,0.0606244077387894,0.0288722585329768,0.097430810687056,0.0512881189712715
0.0814131463994558,0.0995224923502111,0.0637804066513995,0.0124343228163972,0.1018606457086767,0.0978936514596814,0.1146699673835184,0.0895839264719003,0.0513825571676018,0.0449053281378855,0.0359401338965351,0.0097357018985273,0.0629765428168064,0.0291551999177848,0.1000409099176582,0.0503768857983519
0.0793325532152434,0.0881807852273206,0.064165724111271,0.012333662639056,0.0977086238062222,0.0947174361850094,0.1159197938782942,0.0909112363602182,0.0526897280923965,0.0452089857680298,0.0367489113586156,0.0097157323372156,0.0651924039232675,0.029315870581767,0.102321063964505,0.0491193841665069
0.07869971803985,0.0790157647616331,0.0652653012363789,0.0120612045526368,0.0936401729128034,0.091521802925601,0.1168447629395076,0.0920974179022071,0.0544631779131749,0.0455019524541634,0.0375981672394006,0.0097254400249439,0.0672612343076295,0.0293576496285097,0.1042384864516706,0.0475330185368076
0.0794649998664694,0.0719390019118307,0.067051672843,0.0116338478924325,0.0897253415244319,0.0884367504686201,0.1174510842880991,0.0929938218724056,0.0566468480283151,0.0457744233536064,0.0384866204395512,0.0097728703852744,0.0691837279959411,0.0292794054471248,0.1057517051505692,0.0456868749631883
0.0816960854204551,0.0669742495299459,0.0694805642946489,0.0111256977807267,0.0858104855152508,0.085489478881178,0.1176263197225608,0.0933925152659441,0.0591738484571908,0.0461253877989045,0.0394056954003896,0.0098649674466283,0.0709420828657691,0.0291159961575452,0.1069322609077901,0.0437874501028699
0.0854724337266673,0.0641106117050572,0.0724394512483725,0.0106475877589142,0.0819099957865889,0.0825764733943823,0.1173252728154174,0.0930100073927715,0.0619707439322739,0.0466205817116197,0.0403335087172628,0.0100051490137149,0.0725293518554552,0.0289307301213563,0.1079246364410035,0.0420369041755418
0.090690260513515,0.0632581929853499,0.0757395083736957,0.0103105635047007,0.0782069957602112,0.0795615495328157,0.116412775978494,0.0915567405842043,0.0649475088640758,0.0472809150306008,0.0412544829753973,0.0101889907006844,0.073889014523429,0.0287806406800584,0.1088258518615986,0.0405780829405007
0.0971221336864411,0.0642022657122411,0.0791841373564228,0.0102211534936102,0.0748311322997472,0.0764108814478804,0.1146689245146845,0.088877922656635,0.0680297920876441,0.0481277898424001,0.0421875687105644,0.0104098536233826,0.0749099404324069,0.0287569511175087,0.109792976282008,0.0395092155464574
0.104331044256973,0.066548571567591,0.0826058062234306,0.0104648983322593,0.0718729823433017,0.0731275165215442,0.1120776514886443,0.0851909225778559,0.0711956024844533,0.0491675791589193,0.043159327876936,0.0106520075313185,0.0756172058867066,0.0289614262532307,0.1110240315740836,0.0389066699436623
0.1115776970741339,0.0697077497725578,0.0857527559836923,0.0110937385583047,0.0693991946857605,0.0697106002551344,0.1086141848953444,0.0809338818071101,0.0744093913384691,0.0503752488249601,0.0441709368074191,0.0108911970388745,0.0763023504227233,0.0294576785793072,0.1126654477168022,0.0388088638934536
0.118062710862276,0.072954258417152,0.0883283979237879,0.0121349061292858,0.0673903093941103,0.0660421604931261,0.1041504070732332,0.0765457367772617,0.07757230145301,0.0516990629610733,0.0452000319413679,0.0110989474605852,0.0772318626595627,0.0302724695950345,0.114789040911664,0.0391972845376491
0.1232403645959173,0.0754592202543709,0.0899560873374845,0.0135855555332031,0.0657566029571923,0.0619850079114132,0.0988146521772208,0.072336196398782,0.0805246767688865,0.0530528681953777,0.0461987071997479,0.0112552353008629,0.0784945010162485,0.0313973989774046,0.1174059570313968,0.040011406988214
0.1265724960058232,0.0766386351236097,0.0901585658658996,0.0154041281400155,0.0644249464471781,0.0575474054844173,0.0929026342314527,0.0685265909068462,0.0830738701694639,0.0543357605739972,0.0471029801180994,0.0113464711191922,0.0800233491433692,0.032786879161258,0.1204736126142654,0.0411580851740141
0.1278000856874526,0.0767093773734717,0.0888434817974614,0.0175198813016591,0.0633838983307298,0.0528525249014995,0.0867980684022174,0.0652210093316812,0.085063446111844,0.0554958182095237,0.0478743227496228,0.0113652642320805,0.0816278556927162,0.0343742412102207,0.1239421222798544,0.0425053950945919
0.127360271259239,0.0762347599801126,0.0863240119884527,0.0198542545036925,0.0627465986294142,0.0480757666849209,0.0809141613776686,0.0623540039420502,0.0865328167759525,0.0565720388034119,0.0485319584377573,0.0113189967151265,0.0830348049243308,0.0360870713431162,0.1277770717178309,0.0438948070596702
0.1256640596485092,0.0754857106378099,0.0828503834888517,0.0223127389345087,0.0626153290176884,0.0434524210671269,0.0755652229413458,0.0597675045775995,0.0876502994731823,0.057647986940866,0.0491514794641613,0.0112268941721039,0.0840333871058296,0.0378641513717411,0.1319362798393993,0.0451745502043939
0.1229291587037093,0.0745458689428895,0.0786271207960241,0.0247951147110776,0.0629846148474229,0.0391793540720017,0.0709341085588197,0.0573680869788385,0.0885978379509877,0.0588446314886955,0.0498110655403432,0.0111080994726105,0.0846395513345818,0.0396597854897739,0.1363287125594881,0.0462343189069859
0.1194567026762984,0.073520165655412,0.0741156583831646,0.0272123179796124,0.0637607787702261,0.0353818688334177,0.0670574168213786,0.0553089444951935,0.0895518697619865,0.0602873630208779,0.0505539690155576,0.0109796428658545,0.0850426186714672,0.0414388520155981,0.1408457193956713,0.0470329562674755
0.1157450319373081,0.0725510386205512,0.0698596069392088,0.0294729989601299,0.0647103696126353,0.0320957402304749,0.0638549376150381,0.0537862363101965,0.0906588688430828,0.0620714192820342,0.0513824412279544,0.0108571008240305,0.0854649160864833,0.0431443345735648,0.1453068491711083,0.0475688357919043
0.1122026702272802,0.0718523502952178,0.0662162017414129,0.0314332893113413,0.0656276408721543,0.029278469213936,0.0610679253444041,0.0528819320791138,0.0919863363116419,0.0641987338971516,0.0522577605839675,0.0107564145964048,0.0861561906391405,0.044696560311394,0.1494199345748977,0.0478508460649438
0.1091353688625642,0.0717453665760892,0.0633257211935691,0.0329136822175696,0.0664941138893327,0.0268811105168004,0.0584227435906841,0.0525350747062371,0.0935064736668172,0.066597183505148,0.0531023662377472,0.0106939385876111,0.0872870992344221,0.0460618509291799,0.1529105508611012,0.0479122554834211
0.1068208792524424,0.0724568618440293,0.0612016564303407,0.0337863925297554,0.0673824560795948,0.0248774306074527,0.0558061781279352,0.0525933875552888,0.0951118506658653,0.0691944678655245,0.0538335001757811,0.0106838027822415,0.0889262863268078,0.0472832615345417,0.1556344811779436,0.0478562832952433
0.105331622099637,0.0739238138160649,0.0597743990494927,0.0339902362999612,0.068298391459901,0.0232590413365392,0.0531817144068736,0.0528903261273374,0.096645019866454,0.0719165888179804,0.0544222071269537,0.0107392332802561,0.0910812738752583,0.0484258418599562,0.1575953743536358,0.0478535352366
0.1045020423121836,0.075846050583696,0.058883628877927,0.0335186924540277,0.0691398689959433,0.0220005398564911,0.0505252286044088,0.0533021212807681,0.0980339578089698,0.0746535381457005,0.054893213170351,0.0108621526999695,0.0937086612007265,0.0495408060060948,0.158856531458008,0.0480850661320276
0.1040387547010968,0.0778306907851353,0.058329278084976,0.032401572174206,0.0697479887914017,0.0210304794356687,0.0478566163105139,0.05370375047312,0.0993031682011455,0.0773246364753689,0.0552746221904881,0.0110375874630715,0.0965976217328475,0.050661259698964,0.1595041243501994,0.0486777474349432
0.103625210183201,0.0794448276929804,0.0578973374011195,0.0306406786634615,0.0701139901249618,0.0202407447568203,0.0453199237286783,0.0539486618546535,0.1004864525722869,0.0799128777549695,0.0555834423660152,0.0112433161856345,0.0994016228052274,0.0518170199759127,0.1596553148870864,0.0496683273131587
0.1029512904183008,0.0805331215986634,0.0574619996231566,0.0283218230074084,0.0703422906493778,0.019547342543987,0.0430822083102048,0.053888285382955,0.101561669337989,0.0823698650689852,0.0558479036274324,0.0114534658316218,0.1017888653577333,0.053029703479294,0.1594093897174549,0.051003096379284
0.1019630251723343,0.0813523917185173,0.0570466058026297,0.0256602660674354,0.0704249327723527,0.0188901571246843,0.0412515955711454,0.0534226634300211,0.1025505916599679,0.0845903059035644,0.0560890353565217,0.0116410385923943,0.1035952699938807,0.0542719224783201,0.15883917010084,0.0525594991328041
0.1008617314996102,0.0821857476186451,0.0567014846498843,0.0228761259774511,0.070274022257221,0.0182497257996146,0.0398062704700435,0.0525871266191115,0.1035607100514388,0.0864880639778952,0.0563305786113506,0.0117930381375055,0.1048384256574959,0.0555090972592129,0.1580005081476687,0.0541761752918526
0.0998555342719712,0.083218703128296,0.0564243009974979,0.0201013651878323,0.0698152398394676,0.017633504939905,0.0386735368517943,0.0515255648920975,0.104671947247937,0.0879675454870227,0.0565902677685242,0.0118982224387671,0.1056865275740726,0.0567515128018595,0.15691515939811,0.0556696663969108
0.0989882014764794,0.0845424901178632,0.0561873341397254,0.0174527284104082,0.0689410414716286,0.0170474432699876,0.037789732319204,0.0503814236401808,0.1059011994863043,0.0889318155880737,0.0569079327157921,0.0119404299857562,0.1062219140023449,0.0579950483492666,0.1556345001985835,0.0567922578573985
0.0982240821015102,0.0861324949288355,0.0559514069856014,0.0150405834019662,0.0676677257234868,0.0164658733352157,0.0370687828001334,0.0492458333509698,0.1072748178177363,0.0893985987662696,0.0573497095575214,0.0119097219422883,0.1063953339413803,0.0592823118625316,0.1542982013558564,0.0572767060387685
0.0975940878490871,0.0878933017107824,0.0557423411636412,0.0129249489422003,0.0661636941334218,0.0158472896285255,0.036410417019237,0.048121841392118,0.1088620476348471,0.0894503858386855,0.057969270171438,0.0118090548185098,0.1061277223778745,0.0607251345439967,0.153125476012173,0.0569611825270047
0.0972693213821819,0.0898867540128015,0.0557020992563228,0.011117001493633,0.064653613598675,0.015170554755452,0.0356494320513583,0.0469805974726198,0.1106594784008087,0.0890567163031041,0.0588036735022921,0.0116581334559033,0.105336925821773,0.0624224539032426,0.1523718384309079,0.055862476457849
0.0973962814377897,0.0921642036149725,0.0559847256607224,0.0096132262086814,0.0632727846494661,0.0144610637886042,0.0345943716487075,0.0458311667989072,0.1125831001940949,0.0882333042177084,0.0599137174826887,0.0114836664070243,0.104059400604294,0.0644415740914626,0.1522732331058195,0.0541544064920137
0.0981646501585678,0.0947264774632468,0.0567199933673432,0.0084016746140422,0.0620814742675331,0.0137754759279284,0.0331469196952621,0.0446810085598173,0.1146716552233685,0.0870719784615347,0.0613392578707145,0.0113089656847956,0.1024510335715116,0.0668192836605515,0.1530875209748055,0.0520484979756256
0.0997978827608686,0.0975642055868113,0.0580960204930444,0.0074539312491881,0.0610593100313364,0.0131440486063125,0.0312953242234045,0.0434938637686813,0.116973062932957,0.0855900848712614,0.0630737024752427,0.0111496993351145,0.1006772183004498,0.0695316163798532,0.1550567602380667,0.0497445773524777
0.1023453380047645,0.1005972563151915,0.0602677212136008,0.0067423080558506,0.0600846446972033,0.0125569813763632,0.0290322590075356,0.0422459177820372,0.1193052259330373,0.0837589522649951,0.0650764651608806,0.0110222520387073,0.0988920371684234,0.0724643142569629,0.1582777093452687,0.04743139268526
0.1055308669244908,0.1036122403202616,0.0632374615861644,0.0062602097429632,0.0590904090214898,0.0119718835217142,0.0264112204394535,0.0410649606592046,0.1212590339210038,0.0815985731519045,0.0672263992004335,0.0109415448282403,0.0972339358564178,0.0754141745795364,0.1626531324351834,0.0452825158054762
0.1089415903729257,0.1065410766990989,0.0669114183160098,0.0060204275866403,0.0582172539286474,0.011346262268199,0.0235336931760823,0.0401270443479519,0.1224477909487924,0.0791753263115387,0.0694750189722578,0.0109150519181117,0.0957972089650553,0.0782012208556975,0.1680122693269624,0.0434702682922442
0.1123495242908377,0.1095975674731514,0.0712025958765146,0.0060391748161504,0.0576321663128788,0.0106568517016097,0.0205008465977149,0.0395186091949245,0.1227158776221422,0.0765841039144076,0.0718681655857284,0.010951223776678,0.0946530166230475,0.0807216834196645,0.1741862468165425,0.0421331549293567
0.1155465909722216,0.1128666193931381,0.0759543155922418,0.0063226516500836,0.0573716213058348,0.0099002028212997,0.0174670641292077,0.0392104348200108,0.1220188863334386,0.0739376640015708,0.0744490912408452,0.0110623222195314,0.09389567282068,0.0829385729496703,0.1810991176114239,0.0413403061950511
0.1182756904350701,0.1161378472799638,0.0809558450239667,0.0068710625982172,0.0572966209734289,0.0091150826313979,0.0146085811203544,0.0391126107620665,0.1205905226936928,0.0714093096134292,0.0772992951441705,0.0112505950019977,0.09349370884879,0.0848731268714098,0.1885875704392018,0.0410978672334263
0.1204763358124539,0.1192436630960025,0.0860810010036006,0.0077025486476742,0.0572054944518154,0.0083576342468019,0.012061566529841,0.0390839617295437,0.1188431601831682,0.0691243252691304,0.0804710866722899,0.0115048694725205,0.0932199495931838,0.0865143318909422,0.1961422661626042,0.0413536446104269
0.1221666902081997,0.1221926142731654,0.0911633578017663,0.0088598941758121,0.0569921649525065,0.0076689636636839,0.0099031297462553,0.0389180500348668,0.117108488242847,0.0671465701262879,0.0838761179381687,0.0118099383841799,0.0927822848588197,0.0876900776553647,0.2028739494166416,0.0419979348594399
0.1232368679863173,0.1249091482971239,0.0958724082079578,0.0103818358861083,0.0565752917209489,0.0070776085887708,0.0081577928441763,0.0384441427369106,0.115622936008732,0.0654932981751209,0.0872989966681018,0.0121573890188598,0.0919633115844479,0.0879782500180529,0.2077164413256579,0.0428819166633155
0.1235233264018393,0.1271417310837427,0.09982071082073,0.012294099513065,0.0558822072228301,0.0066010015384792,0.0068158684825372,0.0375722558962205,0.1143599011830133,0.0640311463214398,0.090391196729073,0.0125541476539955,0.0908119996527851,0.0869480221961455,0.2097615675200913,0.0439008400158334
0.1230685223861117,0.1286581808434127,0.1026881270973946,0.014616005326508,0.0549603077386692,0.0062502351034812,0.0058504173406939,0.0362383492506076,0.1129111689016451,0.0625390397981802,0.0927839225461204,0.0130321882636648,0.0895175349593972,0.0847167984347799,0.2087639547800483,0.0449899605152217
0.122089944221651,0.1293440050735541,0.1043099391834199,0.0173565405154069,0.0539436901318441,0.0060273732999098,0.0052164125756682,0.0344936138885224,0.1108539976265697,0.06100342745267,0.0943941704789787,0.0136288146498332,0.0881701351120492,0.0818823660503115,0.2051155223570128,0.0460505169681775
0.1207953149414456,0.1289269607737049,0.1046020971983937,0.0205044012773519,0.0528942235423482,0.005925591840526,0.0048528945451722,0.0324163192080866,0.1081539479657986,0.0595120715855599,0.0953547106556824,0.0143763944172504,0.0868091662071005,0.0790005624160762,0.1994265584007454,0.0469138620798788
0.1192322044978863,0.1270185202710389,0.1036204780870041,0.0239975935485571,0.0517344708833969,0.0059279194820594,0.0046888566355254,0.0300485183656684,0.1049700930253617,0.0580685149543892,0.0958267703303239,0.0153221915536752,0.0855167124047621,0.0764047379256218,0.1923334298777512,0.0473967277928296
0.1174841486966115,0.1234605976491059,0.1015965318736644,0.0277076263316238,0.0503038380486612,0.006011464670527,0.004649279616008,0.0274066585060264,0.101446781150204,0.0565177752625513,0.0959845752991676,0.0165227434048303,0.0843217037726502,0.0742861435532048,0.1844615222155622,0.0474328281515068
0.1155526946431643,0.1182091466676607,0.0987473840169256,0.0314744594572743,0.0484756521723485,0.0061498708845662,0.0046629059536897,0.0245803576734521,0.0976360379399414,0.0546326887408087,0.0959740662111454,0.0180267434988601,0.0832945041805852,0.0727850312679077,0.1764229272331841,0.0470403311059093
0.1133417808694019,0.1113884455433542,0.0952276335621756,0.0352013513691033,0.0462090207034047,0.0063240987796347,0.0046913587317668,0.0217535739797642,0.0934580208593765,0.0523047920585283,0.0958908560705232,0.0198685042548517,0.0824412883514012,0.0719713857324917,0.1688329728209506,0.046261647882047
0.1107113912908208,0.103646352995985,0.0911794872312036,0.0388911132768075,0.043569845056834,0.0065306010551497,0.004725618476665,0.0191057007268255,0.0889606930767132,0.0496035828880641,0.0958465148744229,0.0220736736836533,0.0817238035159097,0.071861838636309,0.1622368456315278,0.0451838415946024
0.107481915174843,0.095781352720673,0.0866775793716141,0.0425444632028626,0.0407108794486071,0.0067622312798618,0.004756878461652,0.0167579414238823,0.0842754105528874,0.0466387967662016,0.095896961656377,0.0246628438572489,0.0812672331399687,0.0723225164932063,0.1569703791243591,0.0438949419592542
0.1034747419472589,0.0883099132057234,0.0817974385069465,0.046171700623301,0.0377825500457717,0.0070036487891841,0.0047731853572352,0.0147733537272789,0.0794337964899108,0.0435554559401215,0.0960706517510909,0.0276479646509126,0.0811993305127568,0.0730242330882375,0.153102307688095,0.0424383131577211
0.098640222919411,0.0814854784924174,0.0766651585339042,0.0497442450017189,0.0348589444191848,0.0072442670296671,0.0047705321200676,0.0131670438637333,0.0744922900553936,0.0405532360041863,0.0963695498175582,0.0310355282981827,0.0815285665151751,0.0735050674360979,0.1504039753144556,0.040872981473906
0.0931745723513359,0.0753000914629085,0.0714632047650211,0.0531550738500041,0.0319491581001919,0.0074772161658716,0.0047594247438136,0.0119185020400252,0.0695981515348082,0.0377715041786298,0.0967289490143976,0.0348356830164797,0.0823125899955916,0.0734275768450826,0.1485452553421017,0.0393312982909109
0.0872880146403544,0.0695482026728789,0.0663168411223257,0.0562913368736629,0.0290902205480783,0.0076928609419814,0.0047498639575255,0.0109972298988993,0.064860949630996,0.0352913538999688,0.0970831564533475,0.0390645840091709,0.0836281033063288,0.0727127827541132,0.1471456037763459,0.0379509675807857
0.0811221896465092,0.0639585714002025,0.0612956532165649,0.0592308042303137,0.0263056696577565,0.0078849865039108,0.0047534171447799,0.0103722268308664,0.0603730900922284,0.0332263461161975,0.0974693435597906,0.0437421533561067,0.0854384440497405,0.0714024496237768,0.1457541089394474,0.0367999860778327
0.0748218117211341,0.0584069815580063,0.056461444633482,0.0621197582555485,0.0235919966553297,0.0080556728063286,0.0047801528835027,0.0100088603987519,0.0563251286421524,0.0317055754888881,0.0980572745178911,0.0488961274975308,0.0876984318824429,0.0695492088172909,0.1436834127079853,0.0358684687605013
0.0684893456353446,0.0526985087598447,0.0518873366765778,0.0649185858907711,0.0209586871911454,0.0082013840680358,0.0048319118702588,0.0098651415685205,0.0529347741445903,0.0308186792894617,0.0990626829429004,0.0545401542660372,0.0904055910196558,0.067121198419959,0.1402971447928682,0.0350987186319792
0.0621767090989372,0.046679069676558,0.0476166430268023,0.0674368432276762,0.018432689840364,0.0083068050150642,0.0049013215790304,0.0098950528984436,0.0503198730906773,0.0306432568553402,0.1006583582335266,0.0606783222645265,0.0935124010365606,0.0641297027775871,0.1353263053101867,0.0344533714987547
0.0559314420735832,0.040451127516041,0.0436529741515145,0.0693712912193889,0.0160455674302243,0.0083587403488779,0.0049771933762851,0.0100554100737887,0.0486066738460843,0.0312699340368407,0.1029417365737308,0.0673164982562457,0.0970017641766009,0.0606199540578628,0.1287157894455159,0.0339306575648342
0.0498023574378424,0.0343344642868514,0.0399291299409388,0.0703117102502753,0.0138713530234137,0.0083363619785804,0.0050457820287,0.010306045534896,0.0479619704474543,0.0327784667364427,0.1058896848739685,0.0744462943672903,0.1009355804252452,0.0566200151482967,0.1204613233541645,0.0335005030727586
0.0438314180941201,0.0285968982119176,0.0363358571696652,0.0699218859915546,0.0120147402895893,0.0082068268215779,0.0050853531629472,0.0106134118304454,0.0484955944441401,0.0352122183793511,0.1093803510252852,0.082030390368476,0.1054039683101669,0.0522422174633816,0.1107084819796522,0.0331133252630484
0.0380532928693065,0.0233788161299181,0.0328118249700915,0.0680679878059254,0.0105874784535307,0.0079477638249703,0.0050768948207558,0.0109473457920744,0.0502283750497701,0.0385708489644774,0.1133165173680061,0.0900130888390649,0.1103896284277469,0.0476637524223532,0.0998392207181184,0.0327043193693579
0.0325720540622007,0.0187325342749691,0.0293614354912681,0.064735907256012,0.0096937881521283,0.0075706285579155,0.0050254503876278,0.0112741102759374,0.0531569962436409,0.0428085060672961,0.1175920494838323,0.0983057412730614,0.1159508813468933,0.0430267522990639,0.0884026346648508,0.0321844484629346
0.0274858998069044,0.014676109084894,0.0260114716606181,0.060158791117841,0.009406598835416,0.0071250810273072,0.0049605551289907,0.0115517980280888,0.0572602263931051,0.0478237601028407,0.1219645160141262,0.106752427628456,0.1222030009260718,0.0383898222397626,0.0769232010529707,0.0314708520788571
0.0229033235852706,0.0112450703803957,0.0228429194546791,0.0545876195080005,0.0098028636356292,0.0066649125691575,0.0049160681984006,0.0117334341071773,0.062472115939035,0.0534652909483154,0.1261228088514146,0.1151358432436953,0.1291173084465866,0.0337832387356203,0.0657759391140978,0.0305317414910371
0.0189353900184427,0.0084352086878838,0.0199232005749957,0.048334097155581,0.0109696728173992,0.0062348517561165,0.0049235102206563,0.0117815605206505,0.0686809432030373,0.0595324397668152,0.1297478920821354,0.1231794889570781,0.1367046765332009,0.029356988799266,0.0552304122865233,0.0294114535415273
0.0156492038224361,0.0062149902122608,0.0172839921351238,0.0418203161994271,0.0129714506533685,0.005872751286343,0.0050074828567313,0.0116979999590991,0.0756809466296598,0.0657696874503668,0.132608830808429,0.1305418731911819,0.1449412134937371,0.0253019907580182,0.0455633630617232,0.02821613553887
0.0130523161722995,0.0045306326307909,0.0149278603264283,0.0354494359714808,0.0158184486372242,0.0056114013324984,0.0051798199582116,0.011510562356197,0.0831274220660576,0.0718953534000073,0.1345699516706206,0.1367844397445813,0.1535982528010298,0.0217394139531008,0.0369833508739249,0.027039442396263
0.011101079902733,0.0033088122704733,0.0128728136855941,0.0295064684338989,0.0194497621185334,0.0054777801457753,0.0054402457304507,0.0112372922258775,0.0905152279921675,0.0776390598885155,0.1355450175263806,0.1414349225541276,0.1622285673456341,0.018715685059205,0.0295867408163728,0.0259418603257517
0.0097113430546204,0.0024676252336519,0.0111412071855334,0.0241666881688791,0.0237288443520636,0.0054952531531332,0.0057761289405047,0.010899709227639,0.097171897821685,0.0827024206455442,0.1354264702101896,0.1441179866050004,0.1701854711662193,0.016219315770983,0.0233857189066138,0.0249540635847165
0.0087669835302417,0.0019281172467498,0.0097385426417247,0.019512493311889,0.0284524682788075,0.0056802219834396,0.0061592030067137,0.0105380497434662,0.1023867307411479,0.0867144527436637,0.1341590863773366,0.1445249930037857,0.1767957066970867,0.0142013904090802,0.0183166395070295,0.0240882480425223
0.008156856049379,0.0016191502810353,0.0086470298168041,0.015550471245288,0.0333405401830724,0.0060377532174485,0.0065387370870468,0.0101899518477103,0.1055953403806423,0.0893162311704808,0.1317807899188353,0.1424249943457441,0.1816978980695108,0.0125922132794397,0.0142745258463272,0.0233511178548342
0.0077833792386743,0.001477964221018,0.007818106975133,0.0122489847806547,0.0380344692669025,0.0065615343152179,0.0068405556435278,0.009882730450406,0.1065983331144281,0.0902872026742362,0.1282192835924221,0.1377355180127923,0.1847289553973418,0.0113247291385612,0.0111459036622485,0.022729060433455
0.0075529760814524,0.0014505213284277,0.0071892437061073,0.0095554392006786,0.0421723783367216,0.0072333324311585,0.0069771508354466,0.0096297103655416,0.105566793273697,0.0894612075079593,0.1232833825633528,0.1306039575874818,0.1857638915599204,0.0103415937805317,0.0088139512622449,0.0221981434349941
0.0073811087378103,0.0014944295473197,0.0067046782637936,0.0074065100430846,0.0455087937941413,0.0080232602372435,0.0068931107053952,0.0094327973222879,0.1026721073096375,0.0867580780887627,0.1168446878256556,0.1213983991525025,0.1846425481956413,0.0095945367799981,0.0071795205413243,0.0217343942362389
0.0072116266502809,0.0015751176225243,0.0063165290719924,0.0057332461984163,0.0479103169458687,0.0088967705473579,0.0066104908033003,0.0092992400906694,0.0980971051113904,0.0821557948189172,0.1090160285950258,0.1105694548054198,0.1813231862717643,0.0090507145293081,0.0061621778666882,0.0213249909860462
0.0070164045573664,0.0016630293887443,0.0059930921455315,0.0044600968299046,0.0493396911585965,0.0098134947828351,0.0061928103555872,0.0092383839615854,0.0919924682755466,0.075865329127552,0.1001309137599944,0.0986843420695771,0.1760658166716436,0.0086903560622449,0.0056985735137245,0.0209810842871809
0.0067898313399127,0.0017374849120382,0.0057212561090741,0.0035132122228277,0.0498509583778635,0.0107123104816088,0.0057053194254246,0.0092521342734702,0.0845275854042024,0.0683034898512686,0.0905176685978588,0.0863473758431705,0.1691880184985613,0.0085041917221772,0.0057420344998588,0.0206999344294648
0.0065403933217417,0.0017890956310062,0.0055037890551705,0.0028250484241391,0.0495518528662942,0.0115184399177234,0.0052021632864257,0.0093398808080981,0.0761381415119245,0.0600498748702256,0.0804817252454399,0.0740923966211175,0.1608991937836238,0.0084966463146943,0.0062611275512206,0.0204620586230259
0.1324678472933625,0.1668967623175297,0.1089621354725038,0.059892682253356,0.0365117845808785,0.0965337822810011,0.0883832970400684,0.121895859175083,0.0508128438280641,0.0179939200290371,0.0358784059815545,0.0584476511975279,0.0296621276566311,0.0671859898957277,0.0580858616206627,0.0731940220528117
0.1461587198925219,0.1633219407311356,0.1007803210779802,0.0631576429245368,0.0401412569622966,0.0998830131747198,0.0899605112649851,0.1257437602947215,0.0517975318630106,0.0196018852347232,0.0369383709793579,0.0586632006802841,0.0305001386833705,0.0664783809545854,0.0582791949066457,0.0723947992145744
0.160569637105465,0.1583716040774286,0.0917673906694128,0.0655373700087808,0.0445880872900567,0.102516174758111,0.0907010727329709,0.128186623973248,0.052787208457513,0.0213363427369631,0.0377670249269073,0.0585830826173638,0.0312218370201887,0.0654544301337412,0.058239156535127,0.0708166909172713
0.1742763603397154,0.1521663788376289,0.0827681017681196,0.0669344908152571,0.0499422959476478,0.1041412794227935,0.090742368249037,0.1287067625272032,0.0537066816367105,0.0230947299913339,0.0381617561878668,0.0581602687557287,0.0318030697290946,0.0641405602190581,0.0578537351408606,0.0686362947602483
0.185643566129496,0.1447160159278081,0.0744115274497251,0.0675749977142251,0.0561779283244381,0.1044632190997611,0.0900426352534278,0.1271222959984654,0.0546073451802749,0.0247610795990613,0.038057319215961,0.0575685152103719,0.0322661938951397,0.0625844846583045,0.0571192103421534,0.0660112625095404
0.1933089009872708,0.1359238640141079,0.0670240029494149,0.067734882011841,0.0630593436259084,0.1032357966566164,0.0885363117143138,0.1235109872998193,0.0556697886707936,0.0262748492410434,0.037596192422933,0.0570473166828857,0.0326724741282057,0.0609515334866352,0.0562390186281992,0.0631289999076508
0.1965646504379407,0.1257823493235444,0.0608821474342335,0.0677585998227148,0.0700366383919114,0.100303511651282,0.0861901581949603,0.1179678708956702,0.0570745445686971,0.0276195900040723,0.0370028143879099,0.0568264979420055,0.0330908535036373,0.0595286713356943,0.0554564274087839,0.0601453804084906
0.1951802593866465,0.1148196253387234,0.0561418163736126,0.0679327878343288,0.076356988605815,0.0956397795294899,0.0829614847250903,0.111095254521803,0.058892539415094,0.0287996878893593,0.0364253400181769,0.0571296431969964,0.0335482336990509,0.0585951518743844,0.0550260020056946,0.0571989595912717
0.1894714791673418,0.1038505653522059,0.0527354688716127,0.0684750707130656,0.0815983787820758,0.0896140507273841,0.0790100501698482,0.1036239832881019,0.0610171121655681,0.0298034382726598,0.035943804652764,0.0580850252846937,0.0340775018459645,0.0583074195097851,0.0551070516457311,0.0544435285740119
0.1801421398719183,0.0934794877067379,0.0505156675623027,0.0694912327464787,0.0857954743513976,0.0830185978053228,0.0747133547924104,0.096077047412812,0.0631494890920116,0.0305483785832164,0.0356044048737035,0.0596983335761635,0.0348340549229634,0.0586468120130498,0.0556827603224516,0.0519998819471276
0.1679903032080907,0.0842183613589729,0.0493480987008371,0.0709662237521658,0.0892021357331832,0.0767082545982401,0.0705969937024406,0.0888443669708976,0.0650083162993272,0.0308862606701748,0.0354117262865719,0.0617926515099055,0.036053839441076,0.0594468423555755,0.056577370750169,0.0498528312549462
0.1541658296095707,0.076440871979432,0.0490913254477603,0.0726400653581363,0.0920004339479728,0.0712709097942567,0.0671323303416296,0.0822215289696924,0.0664005639654625,0.0307453915497676,0.0353591379717088,0.0639807423592516,0.0379148284769441,0.0605061477560529,0.0575521587078629,0.0479807156064042
0.1401046800684815,0.070182721207201,0.0495371778813835,0.0742869529224698,0.0941750518777982,0.0669452438744009,0.0644857993218902,0.0765972282203513,0.0672010079753407,0.0301941483455532,0.035446202883433,0.0656739102000772,0.0404691384544822,0.0616553554043711,0.0584710410600852,0.0463927263649586
0.1269537572969448,0.0651528297822979,0.0504168203225677,0.0760072220542237,0.0957437163199172,0.0637154695627775,0.0626580370505603,0.072504405903495,0.0675190927998582,0.0293969563392845,0.0357321759646439,0.0662927417004324,0.0436275151598389,0.0627214369745268,0.0592238475779535,0.0450873076787459
0.1154792091358662,0.0608819441334561,0.0513789103147934,0.0780846311333553,0.0968614326444523,0.0614252012356092,0.0616199978787052,0.0704133535477176,0.0675460100131606,0.0285781251473831,0.0362558056828911,0.065542162245659,0.0471638718536181,0.0635900390704419,0.0597138670120297,0.0440554869530545
0.1059181301408872,0.0568623192314866,0.0519506982334198,0.0807261393674861,0.0976267316370202,0.0599337879422176,0.0612254796138548,0.0706189496454251,0.0674750957288326,0.0279311933157996,0.0369980909990788,0.063697199227986,0.0508385337793514,0.06428444701136,0.0600022566973854,0.043286599609848
0.0980310858445634,0.0529308551000919,0.0518424758299228,0.0840075034962639,0.0979954883410348,0.0591894174283211,0.0612198396675339,0.0731077563493965,0.0673437046268291,0.027540606991854,0.0378224506431805,0.061267181771364,0.0545549910465359,0.0649472043640046,0.0603173027948504,0.0427554136933048
0.091424860900849,0.049259376885971,0.0511644603294301,0.0878755722282217,0.0979472366409283,0.0592042788367528,0.0614026965722732,0.0777328371813778,0.0670884649085671,0.0274180897797316,0.0385769864561089,0.0588014887321243,0.058290146471665,0.065706840157918,0.0609406231425747,0.0424612420408454
0.0858912918428703,0.0459994054572156,0.0501000433316786,0.0920805638827174,0.0976423081179491,0.0599006919076321,0.0617191021396035,0.0842105235172736,0.0667400071487346,0.0275403478733089,0.0391961996513179,0.0567569195231244,0.062047794172783,0.0666115203035196,0.0620383246530049,0.0424391056086236
0.0814595795915916,0.0432210559079633,0.0487812983555489,0.0963309271091048,0.097107030792296,0.0610682973277382,0.062180856681793,0.0919902595484285,0.0663633779841718,0.0278456470334008,0.0396019339173152,0.0554230357178003,0.065780735633069,0.0675908363459417,0.0635852898611057,0.0426595546555847
0.0783299375212541,0.0409281370938757,0.0473954141369396,0.1002141105031655,0.0962430038585129,0.062301670895659,0.0626887872334923,0.1005315575396067,0.0660788635136081,0.0282657956196272,0.0397024993304362,0.0549507297940902,0.0693176744206069,0.068640740018112,0.0656004592774047,0.0430516804433997
0.0767255210126495,0.0392080095998573,0.046155316883924,0.1032497457213321,0.0950861115506552,0.0630935712902195,0.0630698056984839,0.1094167999582404,0.0660826484025553,0.0287097139455317,0.0395319343186584,0.0553243210376131,0.0724045644543977,0.0699158778362913,0.0681700163647803,0.0436254387730537
0.0766865234519102,0.0382940564189172,0.0452019715751199,0.1052680337991679,0.0938237154754953,0.0630155282151278,0.0631208678122194,0.1180951532325615,0.0665343984299404,0.0290816176339056,0.0392488987755289,0.0564031609562251,0.0747490447656184,0.0715749252070685,0.0712998438163869,0.0445111891056877
0.0780924595368149,0.0384045761422727,0.0446725171774993,0.106163153416861,0.0927457789024493,0.0619008967711517,0.0629620135501125,0.1259426547623215,0.0674782001873604,0.0292700931643337,0.0390113880460603,0.0579181684639342,0.0761415277532124,0.0737032977885123,0.0748405008814351,0.0458120279756995
0.0807801692067959,0.0395829950412947,0.044711619392568,0.1058600608989606,0.0920057306656888,0.0598121710707211,0.0628404488056678,0.1326627694118279,0.0689059121989121,0.0291691921619875,0.0389581425949785,0.0594768343927369,0.0766369870660498,0.0763325331837004,0.078505815291862,0.0475791531477467
0.0844633518266391,0.041667721414372,0.0453111041467,0.10426371038283,0.0913265597098396,0.0569481795158406,0.0628634607055665,0.1381211102093364,0.0708357818470144,0.028782049663809,0.0391954170101006,0.0607634673046225,0.0763827291208422,0.0795813124965891,0.0820877279853909,0.0497487391717895
0.0888619700139387,0.0443701774183798,0.0463766809804422,0.1012859837590564,0.0902097141521522,0.0536246234118763,0.0629253134028361,0.1422696673265147,0.0733313743803249,0.0281972062989474,0.0397906301477846,0.0616655626828566,0.0755155844427811,0.0836359792973251,0.0855564568438545,0.0521308992670425
0.0936458007662245,0.0472709488274347,0.0477327442762475,0.0970702291257669,0.0882897517177234,0.0501446883675227,0.0627899326720813,0.1449476564199756,0.0764419762288593,0.0275124203330261,0.0406891886209749,0.0621974296656523,0.0742112649827394,0.088625009179052,0.0889672122789312,0.0545461636729935
0.0983087985440271,0.0499526030609858,0.0491605148161992,0.0918936930665653,0.0855216920362927,0.0467747208743873,0.0622276125891705,0.1463542319335808,0.0802103697710509,0.0268166897835096,0.0417690992818223,0.0624988651583401,0.0726312086206435,0.0944794823866031,0.0921948744335952,0.0569416617494445
0.10231953015214,0.0522829340231332,0.0505448976057621,0.0862106551882705,0.0821197308531964,0.0437331276064971,0.0610605958728068,0.1467564957501616,0.0845860854630698,0.0261576740128305,0.0429420569452327,0.0627599936179909,0.0708333121287398,0.1008665060231519,0.0949027114123481,0.0592848185238666
0.1052349381416832,0.0543005871803858,0.0518401385136865,0.0803779163724992,0.0784112803514327,0.0411436052802927,0.0591883708855441,0.1462076541724261,0.0894563324125975,0.0255770362639197,0.0441724033983698,0.0631846723171007,0.0687829874554094,0.1072629837770105,0.0968323087117857,0.0614880332407964
0.1070647635022406,0.0559661390449256,0.0530131874385052,0.0746895163024485,0.0747851880097025,0.0390930892877501,0.0567808130498347,0.1446470828484122,0.0948256222878136,0.0251320072330851,0.0454867440049097,0.0639509394303243,0.066543339428388,0.1132292881309152,0.0980481164314992,0.0634029667998605
0.1080150512441956,0.0571198491048725,0.0540047769527067,0.0694275642436248,0.0715642720405447,0.0376187196558827,0.0541307721918727,0.1423097128197982,0.1006613571662436,0.0248199877867092,0.0469040263575194,0.0651684976139202,0.0643570205849123,0.1185056168083374,0.0987784294370481,0.0649552849707107
0.1081284601271283,0.0574624394144001,0.0546663021349998,0.0649051926292196,0.0689363438267412,0.0366952066900557,0.0514996433394085,0.1395403597748846,0.1066756435247202,0.0245926505656346,0.0483933538623581,0.0667915880063814,0.062464175514749,0.122899366446009,0.0992308810091709,0.0662163609018332
0.1072959631441126,0.0567718370084206,0.0548510665986426,0.061382593542718,0.0670853347689702,0.0362387926966784,0.0490884105870113,0.1364230042491319,0.1124131014144434,0.0244273994362573,0.049923494107454,0.0686106763215585,0.0610234552830861,0.1261914350782707,0.0994349726498093,0.0673021636000284
0.1053769997787376,0.0550705573057894,0.0544067906178679,0.058990438946057,0.0660315370029525,0.0360984167139616,0.0469870460147319,0.1328759243208709,0.1173207075563409,0.0242645817465303,0.0513923857564026,0.070352977585826,0.0601852456060038,0.1283023684443955,0.0993063614069918,0.0683534246001818
0.10238623657919,0.0526683006630558,0.053349583462496,0.0576060251046298,0.065588508608426,0.0361764377672759,0.045185450240394,0.1287697875037536,0.1208686852409207,0.0240306302979174,0.0527398977081014,0.0718448309852812,0.0601070843409636,0.129381220421996,0.0989807241890402,0.0694563031034668
0.0986898182049004,0.0500491125088568,0.051837720344809,0.0569456921874225,0.0655611354097516,0.036389795969168,0.0435909065739251,0.1241608869612874,0.1228191120103066,0.0236978552901911,0.0540140059339189,0.073182748167639,0.060839319073311,0.1299146175582074,0.0989742087232211,0.070616225609176
0.0948387604071539,0.0476900864291507,0.0500847424239285,0.0566906556250043,0.0659377154693455,0.0365799942730498,0.0420688192721021,0.1191946200285965,0.1235128716157892,0.0232762266216776,0.0553671402047177,0.0745833780050086,0.0623458729675957,0.1306230772357769,0.0997919871027706,0.0717582424561083
0.0912911111174323,0.04581085794715,0.0482659412600013,0.0565627549409533,0.066858793160569,0.0365701061111525,0.0404900494078479,0.1138956638230932,0.1236955637928467,0.0228259540023735,0.0569226172227033,0.0762346205953012,0.0644733209174207,0.1320101187041208,0.1016851014996218,0.072672001773283
0.0883419516708674,0.0443878417942069,0.0465196666294777,0.0563978748807426,0.0684374308929935,0.036242458067688,0.0386879925602615,0.1082950698865491,0.1239380659358337,0.0224383755224373,0.0586191749467843,0.0782085366014174,0.0669776454515097,0.1342277731589782,0.1046521748383136,0.0732845196331266
0.0862459092964916,0.0433190122560679,0.0449441347460143,0.0560427989257493,0.0705454695479053,0.0355706013009033,0.0366990733658778,0.1026833492494886,0.124427769403228,0.0221812000850729,0.060276352260285,0.0804064715947471,0.0696105774756419,0.1371444771309849,0.1084086401786249,0.0736899769645421
0.0851299906917198,0.0426892780282848,0.0435725199087047,0.0553592389137311,0.0729420099286837,0.0345382953970373,0.0347025129700899,0.0973527313219362,0.1250894664426751,0.0220619940204415,0.0616636455424064,0.0827016485139035,0.072192336558108,0.1404336318227926,0.1124304801698483,0.073992854492734
0.0849672223789863,0.0426401405919725,0.042438348163621,0.0542695861014028,0.0753979797278326,0.0331271012984669,0.0328153044919606,0.0924868450208938,0.1256555842897813,0.0220156058385823,0.0625183659219109,0.0850867458098847,0.0746542835621257,0.143694951929034,0.116063632862539,0.0742477035194163
0.0856386585463967,0.0431450482747211,0.0415398869164611,0.0527135069376298,0.0776367896982464,0.0313437399202908,0.0311382116639787,0.088051500501418,0.1257947211645725,0.0219777338088711,0.0627069495795203,0.0876020383522632,0.0770293430450152,0.146586610798991,0.1186882013366798,0.0745214809225745
0.0868794677010722,0.0440454653159344,0.0408920645197378,0.0505331665381087,0.0793751485638969,0.0293284742042421,0.0297086988006737,0.0839568324402018,0.125409322330662,0.0219372351910446,0.0623545755227882,0.0902113672366958,0.0795318286163011,0.149011221197586,0.1199804530769856,0.0748601957478102
0.0885158111928764,0.04513751580784,0.040479529291512,0.0477215411671777,0.0803368168836082,0.027289861288951,0.0285356966059603,0.080288795983791,0.1246711545309521,0.021887028348006,0.0616926377309551,0.0927920118212882,0.0824871272161021,0.1510488198961384,0.1199471681170756,0.0752451411001703
0.0905556989653594,0.046314765062259,0.0402858140635409,0.044522622486043,0.0803349573989259,0.0254168024987427,0.027660779868357,0.0772280171926935,0.1237844489222659,0.0218044030919614,0.0609996802736439,0.0952119455721308,0.0862581721950307,0.1527757829981194,0.1188161490200238,0.0755799124390232
0.0928867375531871,0.0475896749566807,0.0403610665633375,0.0412030933466349,0.0793676981488562,0.0238421923154849,0.0270505820211507,0.0748478880006572,0.1228509004427176,0.0216909561408483,0.0605581440771157,0.0973903305660346,0.0910688090372749,0.154303621571739,0.1169089263746546,0.075813632903222
0.0955379459068625,0.0490789804829347,0.0408195213288916,0.0379035943653854,0.0776101362252671,0.0226555549050555,0.0267229182508149,0.0731235585513624,0.1221535170772465,0.0215863823552835,0.0605449519817328,0.0992560317591543,0.0970188329918981,0.1558012878675566,0.1145742274808652,0.0759589509698351
0.0985484552430484,0.0510270000876994,0.041725800668032,0.0346756410291663,0.0753455651870099,0.0218846320614211,0.0266561413275186,0.0718690593289347,0.1218555942848753,0.0215088371602763,0.0609979492588285,0.1007427184940023,0.1040744766128597,0.1572083928890379,0.1120444424294955,0.0760440287065396
0.1016599353058929,0.0535719305033546,0.0430686094291566,0.0315603569178301,0.0728596345507877,0.0214651327970024,0.0266954780502676,0.0708879776379615,0.121856685908572,0.0214589218389975,0.0618889174530959,0.1017936355349724,0.1119718769253293,0.1582479300540422,0.1095102401306308,0.0761521800415268
0.1044352939609488,0.0568073940330784,0.0448173566633529,0.0285999663053914,0.070496177625923,0.0212867936363925,0.0266072602696129,0.0701600571719078,0.1217788841292841,0.0214108512142629,0.0630706534807689,0.1024081300932964,0.120245507921679,0.1586381349401939,0.1072162151657794,0.0762978778623671
0.1064515602856165,0.0607693534691904,0.0468944702241298,0.0258532935599881,0.0684207341916682,0.0212604082739468,0.0262918021956926,0.0697857358932943,0.121271574092135,0.0213401934954406,0.0644329224426429,0.102627674792224,0.1285162986310526,0.158423622400228,0.1055222652652411,0.0764661850884689
0.1076536442063062,0.0653858965660469,0.0492768487904865,0.0233601197811257,0.0665111292686649,0.0213164976020795,0.0258124167323032,0.0697615497104141,0.120285334030645,0.0212544426346749,0.0658769147655576,0.1025906117862772,0.1367209685784408,0.1579213036189133,0.1047541476054719,0.0767041719901761
0.1084361094114529,0.0705160419374763,0.0520033911479207,0.0211782771836105,0.0645601051629779,0.0213976659326544,0.0252957015276535,0.0701319978271153,0.1186549968676177,0.0211412389840838,0.067197592669606,0.102621138626977,0.1448247120083904,0.1576488249472093,0.1052688982444497,0.0770758831143096
0.1091186415089495,0.0758293976584575,0.0551201540546119,0.0193763860526865,0.0626847976676143,0.0214697847532765,0.024901383694594,0.0708480359249797,0.1159736253349311,0.0209541230093892,0.0681114968940003,0.1029511349113451,0.1527327993784548,0.157993041137465,0.1072652244405803,0.0776028313021034
0.1098899796161514,0.0810034893093232,0.058683696987509,0.0179954111966602,0.0611291699324318,0.0215162518211746,0.0247293584745064,0.0716888412614122,0.1120703454669715,0.020652822360032,0.0683924482585348,0.1035621907758141,0.1604397103905868,0.1589091503843614,0.1105164822137724,0.0781726061078657
0.1109024825845173,0.085823469638098,0.0627648577723559,0.0170259397720802,0.0598947937237712,0.0214957013129473,0.024719825402833,0.0724272333578765,0.1070975377619303,0.0202263856081596,0.0678986833304992,0.1042112835707633,0.167777320351653,0.1599260830241646,0.1143710431660545,0.078609227271013
0.1121147683104696,0.0903595437618908,0.0675069540874515,0.0163878696423451,0.0587913046471965,0.0213384916690266,0.0246338994355969,0.0728715724325173,0.101448372495432,0.0196990217105021,0.0666201911122129,0.1046292306338689,0.1745458192807421,0.1604915713452655,0.1179759218074913,0.0787651585635236
0.1134537419512807,0.0947995744014936,0.0729772866168867,0.0159751843948152,0.05763725621596,0.0209730527094935,0.0241539239004804,0.072798351287862,0.0955802919607967,0.0191042308565775,0.0646310138931847,0.1046872556785569,0.1805882803561869,0.1603258784741576,0.1206394444137905,0.0785771615135942
0.1148935662936798,0.0992633755336155,0.079230318955713,0.0156697075078647,0.0563137435535226,0.0203483357762443,0.0230940057479422,0.0720579428540121,0.0899478333448347,0.018499885768828,0.0621135293574856,0.1044063554360155,0.1855585501447985,0.1595300339245476,0.1221227983508248,0.0779826110316133
0.1164037523193233,0.1037709626444668,0.0863887908082757,0.0153588385602217,0.0546841433199189,0.0194674893190471,0.0214167245267087,0.0707742563627971,0.0849841029246512,0.0179577352430563,0.059356659328668,0.1039325282755791,0.188992219787333,0.1583338323669369,0.1225267243087651,0.0768939541166336
0.1180738410969535,0.1082796106736787,0.0944929477259236,0.0149926608898101,0.0528109825661852,0.0184064903925085,0.0192692907313345,0.0691826188421054,0.0810266623778596,0.0175502314232656,0.0567011683489963,0.1034576609325605,0.1905236107548754,0.1570381875845392,0.1220703137291731,0.0753051925750981
0.1199751596104261,0.1126607048551732,0.1034548232463246,0.014596034832003,0.0507970280844083,0.0173060333452867,0.0170082060625484,0.0674011099413331,0.0781238336877357,0.0173034808037616,0.054343834779844,0.1031809204560978,0.1901248171606201,0.156036559170862,0.1211481157876551,0.0734868261879971
0.1219550937259743,0.1170755839416525,0.1129441598886262,0.0141959659742129,0.0487634648152466,0.0162856703575718,0.0149436081851863,0.0654170100272278,0.0761820665801693,0.0171981559455683,0.0523336217622861,0.103250615078052,0.1882014545839239,0.1555695589719005,0.1201389195656314,0.0718518711937593
0.1237344376513735,0.1217650480999853,0.1225319035151041,0.0138048809101699,0.0468072649079531,0.0154240156883267,0.0132562359222196,0.0632237814945469,0.0750589343705319,0.0171871078934185,0.0506215635006076,0.1036954185762606,0.185508668193213,0.155740331574337,0.119318627811745,0.0707056538851412
0.1251130568472607,0.1268824813825551,0.1319700073776945,0.0134502107094517,0.0449250519477159,0.0147819210015921,0.0120165828155851,0.0609242091610382,0.0744168102296356,0.0171999238800039,0.0490219230665257,0.1044230264760132,0.1827470965417393,0.1563316505693308,0.1186468174202665,0.0701821976415354
0.1261814321452542,0.1324548198126728,0.1408964262362959,0.0131577283286762,0.0431316964364548,0.0143754874742242,0.011208219655454,0.0586028878998684,0.0737082484775308,0.0171614264644656,0.0472952533841059,0.105217788689313,0.1802813866127264,0.1569010736578105,0.1178153793733328,0.0701818132009397
0.1272435979881276,0.1381409386824967,0.148802816134396,0.0129346986954332,0.0414974619453579,0.0141854110645344,0.0107510064006986,0.0563854490514483,0.0722368309766619,0.0170130854753588,0.0452478512807696,0.1058329697526061,0.1781756104743041,0.1571773420292097,0.1165152765536163,0.0704278624573474
0.128485479466276,0.1433024562809018,0.1551280089983862,0.0127604657683506,0.0400869155054782,0.0141603620327737,0.0105110900191449,0.0542669521518476,0.0694643386264296,0.016702111289369,0.0427955407245389,0.1059684316175312,0.1762624531564281,0.1568554353387075,0.1144542364667553,0.0705127376688451
0.1297450493962191,0.1475091929480878,0.1594539586101758,0.0126185720272709,0.0389275145651502,0.0142359046034827,0.01033390169587,0.0520988889204809,0.0653001363992042,0.0161931153788718,0.039994873032726,0.1053521572075717,0.1742271787510917,0.1555459737331704,0.111375164806708,0.070137407048938
0.1307103954931281,0.1508198366249955,0.1617632462571915,0.0125208729631045,0.0380281819768974,0.0143716953471794,0.010151016148494,0.0498063857931476,0.0599515030123829,0.0154898029762053,0.0369219700302398,0.1040536402860798,0.1717371913867482,0.1529857218310386,0.1073108137640844,0.0693789447253426
0.1311272888456073,0.1531945990754534,0.1622190361109429,0.012474263020617,0.0373365448807902,0.0145220741812521,0.0099943454574068,0.0474448923821708,0.0538789825850931,0.0146427692513888,0.0336595040015701,0.1023089906791781,0.1683312537548887,0.1490930410881884,0.1025355662245491,0.0684597618577644
0.130911979551195,0.1542067461263636,0.1608262178795486,0.0124841272528191,0.0367218802408259,0.0146157800506005,0.0098835708655918,0.0450276768192679,0.0475124890019041,0.0136841774579157,0.0302896638866043,0.1002106699990497,0.16354298419615,0.1439255143249771,0.0972849741021932,0.0675907970068098
0.1301522357912339,0.1533681642163376,0.1574600861149536,0.0125640819802091,0.0360552957367061,0.0146010464356996,0.0097959469035281,0.0425236501792518,0.0411549685182045,0.0126330867798614,0.0269545599052651,0.0977150301994441,0.1570493661739939,0.1375367483200711,0.0916778166847898,0.066975623301876
0.1289569801215173,0.1504160976269318,0.1520573002806916,0.0127156413930454,0.0351976573364513,0.0144828614293261,0.0096583667089904,0.0400154543238006,0.0350758645712913,0.0115171143166426,0.0238226349933745,0.0947529702063578,0.1486154368561266,0.1299148195216952,0.0858280630957579,0.0667854527964678
0.1271031917155414,0.1453310758325982,0.144636861832554,0.012934799555623,0.0340245431285668,0.0142804588129566,0.0093613352642759,0.0376402632773811,0.0295487084377557,0.0103845267032475,0.0210474136421186,0.0915194690053813,0.1382949820518764,0.1213706413117728,0.0799397744329104,0.0672081325051705
0.1244212129044954,0.1378196010663515,0.1354892044573258,0.0132167680976384,0.0325133166466409,0.0140141094493916,0.0088380384458713,0.0355289989269363,0.0247680023143976,0.0093001510975728,0.0187954934434067,0.088437441512323,0.1263330279753563,0.1123426441694845,0.0741109157130761,0.0683235220854607
0.1210880132467802,0.1276069080314418,0.1250125686994145,0.0135416357293158,0.0306948383359401,0.0137327884176678,0.0081741736031171,0.0337665823204077,0.0208341130768581,0.0083545158160651,0.0172392340838443,0.085841611326589,0.1130173488389928,0.1032472371684451,0.0683930609190299,0.0700356454295913
0.1175543792443217,0.1150277147434441,0.1133347261109634,0.0138848972616883,0.0286360683247446,0.0134719520250972,0.0074800640946146,0.0324346091230823,0.0177934755846344,0.0076617113548463,0.0165520357428554,0.0839494599971155,0.0989012305919782,0.0944294515532028,0.0627940475171025,0.072146197542654
0.1141005004907122,0.1008884014983634,0.1006278275995576,0.014250025011003,0.0263793151934204,0.0132450301560063,0.006832742292942,0.0315794005871178,0.0156693309477072,0.0073545343993911,0.016935222964435,0.0830173505486912,0.0848390863972008,0.0861907421947209,0.0572960711348854,0.0743921054224917
0.1107013200555829,0.086330791931979,0.0876151917563518,0.0146484340114368,0.024006810242674,0.0130614016523636,0.0062861012994043,0.0311428693202789,0.0144631313528352,0.0075701692269775,0.0186005554005619,0.0832361891371678,0.0717279035122313,0.0787275378907596,0.0518580602712524,0.0765415225020889
0.1072316044920956,0.0723191394559968,0.0752803050803489,0.0150899549300544,0.0216507062923075,0.0129423456654625,0.0058796038530446,0.0310238743373938,0.0141552507302148,0.0084385153632443,0.0217581250427778,0.084736314930219,0.0602870552489166,0.0720177063069676,0.0464924719563603,0.0783948403247844
0.1034740631279426,0.0594169023593674,0.0642887509289708,0.0156125811591252,0.0194187334418714,0.0129089924836992,0.0056289846362029,0.0311081088234094,0.0147101748765219,0.0100778414978632,0.0265799377101082,0.0876562703418035,0.0509905234820308,0.0659579568523031,0.0413193540293893,0.0798517366064225
0.099138144416438,0.0480412233772504,0.054919760267816,0.0162415413994586,0.0173681857936691,0.0129767065375573,0.0055321590488694,0.0312850132443839,0.0160846950102541,0.0126047358328609,0.0331549004663547,0.0920659022879428,0.0441635711380005,0.0604292468601588,0.0364353119261057,0.0808900507404499
0.0941731326546019,0.0385048048211962,0.0473080754616353,0.0169594714229041,0.0155264429976363,0.013155037059152,0.00557297053294,0.0314691923533041,0.0182409740956055,0.0161403298641019,0.0415039781637056,0.0979061315814752,0.0400044915577842,0.0553933787726401,0.0318955345779751,0.0814650490647038
0.0885558557946824,0.0308676750916895,0.0414025057165533,0.0177100911573806,0.0139207460858565,0.0134442461664222,0.0057220167335736,0.0315985534011096,0.0211785579857302,0.020773666226041,0.0515749173761608,0.1049026579635633,0.0386132960316205,0.0509573752918501,0.0278514665770914,0.0814400478763616
0.082202223794771,0.0249340815343276,0.0368925074735352,0.0184086460584565,0.0125485242554974,0.0138442222772133,0.0059467422825,0.0316456358381126,0.0248854416196479,0.0265349152879802,0.0631587449616789,0.112686528537599,0.0400884501684352,0.0472197401745243,0.0244447055026723,0.0807896659933458
0.0750558858902119,0.0203519377095792,0.033320469776799,0.0189761750297887,0.011375766886401,0.0143636872301858,0.0062163763650528,0.0316451014710229,0.0293280491589704,0.0333813319762121,0.0758648437346577,0.1207360346445061,0.0444887427634856,0.0441827442682295,0.0217337518679369,0.079628067080454
0.0673767630856466,0.0168182547057245,0.0303727664791745,0.0193564188385896,0.0104047819225228,0.0149921871158898,0.0065183404043116,0.031654135594218,0.0344370679667828,0.0411648115623646,0.0891424513097803,0.1282603255497174,0.0517736976019232,0.0418029061129446,0.0197018721143795,0.0779679924821449
0.0595384394166956,0.0140547157926785,0.0278341124911333,0.0195133409479983,0.009688775134672,0.0156980653435181,0.0068537578649167,0.0316960713950627,0.040079490090133,0.0496210102516868,0.1022543878091473,0.1344008526805963,0.0618720343690943,0.0399642995516606,0.0182832552468133,0.0757148216854874
0.0515997598210883,0.0117850889068146,0.0255008269855387,0.0194301535066306,0.0093202736184798,0.0164387453861297,0.0072219525861243,0.0317580298587539,0.0460519197423699,0.0583853968590612,0.1143667282199257,0.1384991088941232,0.0747336381320443,0.0385078912246047,0.0173493270365249,0.0728840097569081
0.0437957493318147,0.009915495448896,0.0233422361075601,0.019115249971621,0.0094516460441114,0.017209169558757,0.0076105375929949,0.0318199110846016,0.052087356417508,0.0669687921274742,0.1246401854108154,0.1401685551356627,0.0901651600112423,0.0373132906838415,0.016761382878666,0.0695702397070282
0.0366700427247663,0.0084390947706012,0.0213720835773352,0.018604501837056,0.0102673345633443,0.0180454712658353,0.0079919943609184,0.0318596125035172,0.057840096213016,0.0748368612533043,0.132320972438925,0.1392794708525228,0.1076650088223584,0.0362977119959731,0.0164212121290435,0.0658720236851341
0.0305982307372294,0.0073250477917292,0.019486918659017,0.0179783725167898,0.0119351082024389,0.0189720993575063,0.0083182091516903,0.0318567518631257,0.0629304306164239,0.0814975024356113,0.1367143835228937,0.1359048437767893,0.126422987388838,0.0353997799496905,0.0162267964142895,0.0619068623923579
0.0257729682850621,0.0065249798189956,0.0176496891415067,0.0173270996963647,0.0145971870732227,0.0199541010473722,0.0085187224118925,0.0318370925168104,0.066993336443158,0.0864334950695609,0.1373312914977543,0.130432270567335,0.1452679511440329,0.0345752374819973,0.0160587565745355,0.0577621415461044
0.0222645252717216,0.0059845932597805,0.015930733384282,0.0167226219732757,0.0183625856857971,0.020915975653657,0.0085337860345238,0.0318379473139541,0.0695990336824433,0.0891743991530422,0.1341330654435167,0.1234349921361358,0.162890506236876,0.0337918561287504,0.015820828550762,0.0534681599436831
0.0200576744002503,0.0056598140500498,0.0143972345195211,0.0162388607141114,0.0232721304807108,0.0217909458942691,0.0083733259141473,0.0318469342799661,0.0704872596000864,0.0895183777427779,0.1275580972158409,0.1152829371230798,0.17803664973262,0.0330518305496798,0.015475152471102,0.0491112871366214
0.019075156558731,0.0055108361463565,0.0131155952330844,0.0159557121431158,0.0292496152183997,0.0225264666137672,0.0080982494108953,0.0318186295213358,0.0695480899743022,0.087327619152112,0.118162687426542,0.106192538132096,0.1898919481308849,0.0323955464315313,0.015017751089237,0.0447743534079365
0.0191849559011548,0.0054983809617686,0.0121230576960855,0.0159575122768202,0.0360549112188506,0.0230783323638753,0.00776518688609,0.0317346822441757,0.0666616984306788,0.0825307587711487,0.1066424092350097,0.0965415339451105,0.1980588644093857,0.0319012960312073,0.0144741758502067,0.0405628670546518
0.1644381003620162,0.3124402844741634,0.2200382071230536,0.0559006143073829,0.0601457430261517,0.0821230865910819,0.1103749025221066,0.147521517005224,0.0846796353727415,0.0630715221779097,0.0752067710199033,0.0374816152725728,0.0319060460863827,0.0343352542450164,0.0453338245862869,0.0847498981760688
0.1758847458231927,0.3061546410931189,0.2197757174267115,0.0561568281218093,0.0643051134105145,0.0910081554712141,0.1195396595762033,0.1551416242817306,0.0855997424504806,0.0646950224185361,0.0755166781133615,0.0378073173398178,0.0321873119015519,0.035015109766327,0.045129664018666,0.0826378597085803
0.1875263650858269,0.2950963304680251,0.2169765593800442,0.056096009565751,0.0680940112775575,0.0996721206187029,0.1294086082022611,0.1625285140786773,0.0861509143395258,0.0661642535538413,0.0749772131263225,0.0380091643215365,0.0325911565406664,0.0356546610242176,0.0448762685854128,0.0803277388757207
0.1982093568769555,0.2801864191817937,0.2116251193484503,0.0555728549589053,0.0713539569246921,0.1077721427744485,0.1394385529426373,0.1688919806325367,0.0862729487980285,0.0674181462123137,0.0736557587538455,0.0381348484119947,0.033203038399152,0.0362754913935469,0.0446880336999713,0.0779465654668498
0.2062043929292318,0.2623452971271852,0.2035826825118739,0.054659720807397,0.0739931089285633,0.1151297707529401,0.1492386331573494,0.1735860992182553,0.0860338082417335,0.0685710645661541,0.0718086200487978,0.0382438172567567,0.0340655111518822,0.0368790626847714,0.0446335611988344,0.0757448436464093
0.2102259804956124,0.2420483589268303,0.1925326665109477,0.0534155037831833,0.0759702619384838,0.1218202123641494,0.1585886501097952,0.1768768816669444,0.0857295723284214,0.0698385237492484,0.0697987719848511,0.0384346205567311,0.0351683558158718,0.0374941059128885,0.0448159595452833,0.073954763705278
0.2097840967003824,0.2200308987285051,0.1784724165415498,0.051907430082999,0.0772251971150495,0.1281362682122568,0.1671885432397924,0.1793009429062804,0.0855662695059958,0.0712607775882126,0.0678886500259691,0.0387547461102083,0.0364670449872936,0.0381627298473641,0.0453383981268166,0.0725766270242973
0.2047807148509237,0.1973262624181203,0.161999770199458,0.0502947307965455,0.0775638643275173,0.1344269321009868,0.1745897725071301,0.1816331242241131,0.0855366749176271,0.0726818850930451,0.0662580047141759,0.0391664797223918,0.0378703500013987,0.0389346901503659,0.0462399226495234,0.0714965242075841
0.1957560728735247,0.1751856128133088,0.1444246661837272,0.0487599285139338,0.0768735461764431,0.1407101333365201,0.1802275395799581,0.1843449826985263,0.0855770123956637,0.0739196761457956,0.0649853038799845,0.0395856343508956,0.0393074075776289,0.0397716899972844,0.0474302961428379,0.0705435137104316
0.1841380156384813,0.154706023130789,0.1275069787068395,0.0473921279489749,0.0751005169219399,0.1464664348116426,0.1839623319238585,0.187708595078406,0.0856249986495105,0.0748288170305388,0.0640310733759233,0.039944386489348,0.040821124298453,0.0406047038093119,0.0486520253727389,0.0694704319647186
0.1722730156141791,0.137256708517386,0.1130159261440758,0.046239953043465,0.0723798851846866,0.1511223519057463,0.186328878612012,0.1918278782896716,0.0855047377622052,0.0754420804633668,0.0632927036241794,0.0402031780452391,0.0425390142709493,0.0413731146816367,0.0496446124797387,0.0680970595027384
0.1622937384135162,0.123967864918006,0.102092237418201,0.0452772118563925,0.0694866466567746,0.1548307126565103,0.1879040524100469,0.1967213622443957,0.0850036986356092,0.0758089934155875,0.0626716259467031,0.04038641954795,0.0445842408632453,0.0420828511404292,0.0503450525094988,0.0663461740851081
0.1555396798413089,0.1154154348955592,0.0952150253438577,0.0444178528184559,0.0672724259978056,0.1581736753239337,0.1892637799900848,0.2020274650781088,0.0838886260413199,0.0758997928739397,0.0620488059086621,0.0405367958167559,0.0470215268929216,0.042820432623363,0.0508634712896928,0.0643166659674152
0.1522660099435266,0.111558640130072,0.0923606918163282,0.043677351561209,0.0661192191812072,0.161406509058115,0.1906927354305688,0.2066564352802883,0.0819077623794038,0.0755907107912781,0.0614265288628329,0.0406460509106393,0.0498191021313186,0.0436817465382388,0.0513327473827853,0.0621420643533313
0.1520293013264351,0.1116948884877834,0.0929072716076338,0.0431127625778179,0.0659521569574915,0.1645701766181656,0.1915623912427133,0.2093466529657651,0.0790048389123301,0.0746760570617104,0.0608689312840456,0.0406958863886599,0.0528774314283468,0.0446748338056541,0.0518150127961641,0.0599270666697152
0.154318499023657,0.1150276749233199,0.0960549927771346,0.0427107762272688,0.0664975650102872,0.1672851549585311,0.190669842255526,0.2094417012318582,0.075399183507147,0.0729812057739511,0.0604144941847109,0.0407110741395875,0.056079552753885,0.0457878812197662,0.0523908972557414,0.0578000277354485
0.1585265853506662,0.1207077988389584,0.1009904931757413,0.0424110803887259,0.0673726457850593,0.1690385432757979,0.1874399582045088,0.2072658878936893,0.0713170297670943,0.0704425790346464,0.0600398075697117,0.0407082969698859,0.0592276785828207,0.0469467510044709,0.053097177204916,0.0558518175019809
0.1638939464022037,0.12794037003298,0.1067538850483262,0.0421745974115227,0.0681401009587229,0.1697028988569034,0.1818624728902494,0.2037550423803018,0.0671124581511117,0.0672006932738496,0.0597130859005425,0.0407137985108892,0.0621157904649124,0.0479871496097395,0.0539157902566925,0.0542063736926794
0.1696535466316712,0.1357413365580245,0.1123928299584124,0.0419754735630236,0.0683293292935133,0.1690093086049742,0.173972734653025,0.1999279412929268,0.0631419246552616,0.0636557529955749,0.0593540484850679,0.0407972929474294,0.0645777979858495,0.0487225773717876,0.0547372920365726,0.0529780246746361
0.1750370741133638,0.1429808217827885,0.1173810005780807,0.0418624737817798,0.0678256111906029,0.1663452375110437,0.1638402498770004,0.1963300040642887,0.0595906900664686,0.0600826523439423,0.0588942114396559,0.0410267121597345,0.0664990973791643,0.0489854269501376,0.0554587842788453,0.0521928601559291
0.1791432444208885,0.1488900058826589,0.1216105554960109,0.0418386621418829,0.0670485282901433,0.1611022017473079,0.1516229182386119,0.1933386071325219,0.0565773374248668,0.0565526236760015,0.058443319607819,0.0414123134668092,0.0678608376613277,0.0487654255803617,0.0561109723505222,0.0517281785175717
0.1813198208490548,0.1535565358947242,0.1252691107478552,0.0418325489770355,0.066541473558487,0.1532483570005068,0.1377219806772069,0.1912951012012248,0.0541008555012437,0.0529924508640707,0.0581684179984627,0.0419234737662132,0.0686129258078724,0.0482007791894626,0.0567560833150908,0.0514251022512505
0.1813492819016837,0.1575218623894217,0.1286076199392239,0.0416752948157047,0.0667051665285534,0.1437383582590344,0.1229257770096688,0.1894657250408209,0.0521487583464908,0.0493114671097588,0.0581297321409175,0.0425250898416071,0.0686510676932814,0.0474196578639562,0.0574066660637366,0.0512358034516741
0.1794112500947094,0.1612380699261261,0.1317154985867635,0.0412161084493036,0.0676255295327491,0.133325721427829,0.1082727593962826,0.1867044584140477,0.0508191327681513,0.0456170208622114,0.0582487687348281,0.0431720037132983,0.0678397916902826,0.0465366654478298,0.0580681466278408,0.0511821511325586
0.1755351640098307,0.1646191337405532,0.1341873570686586,0.0403911741044722,0.0690288104284597,0.1225154954126065,0.0949579128416201,0.18226024366047,0.0501514175520923,0.0421515375353458,0.0582937498894144,0.0438226029168868,0.0662015867846891,0.0456613957909774,0.0587670490620239,0.0512933136319916
0.1700035859976315,0.1674684938932842,0.1358256064682182,0.0392907167793588,0.0704912107831215,0.1119831773342977,0.0838834160266435,0.1758828519390416,0.0500864302410287,0.0391294572208185,0.0579983718512812,0.0444524498743573,0.0639987741980231,0.0448474695262041,0.0594527935006844,0.0516054997947897
0.1639862185387434,0.1694783167896537,0.1364277216803482,0.0380399060908738,0.0714071210254855,0.1025171966736197,0.0754755153037027,0.1681224378999906,0.0505338110481775,0.0367053388544221,0.0572635118943001,0.0450007314930438,0.0616465297752891,0.0440454571408254,0.0600230026357951,0.0521038488322194
0.1585653058635921,0.1702621432912304,0.1359276116696566,0.0367317154858106,0.071163528560929,0.0946531725201467,0.0697555850170323,0.1600313181377114,0.0514767958703047,0.034983362821295,0.0562199683556375,0.0454274429047748,0.0595180629737892,0.0431627684430464,0.0603517747221782,0.0526187876241015
0.1542011298797381,0.170034829359735,0.1345015344279555,0.0354726900126334,0.0695242911387066,0.0884595478438607,0.0664059871316205,0.1526628043258762,0.0531157684426854,0.034035589507382,0.0551306391392866,0.0457222257500355,0.0578171672425193,0.0421311043015378,0.0603162794681795,0.0529495918270571
0.1509594376059913,0.1696726863720101,0.1326935232907533,0.0344417720134574,0.0669882498070354,0.0838233367212314,0.0649488573280842,0.1466104195856157,0.0556363238422062,0.0338886119172043,0.0542058848546138,0.0458810590188528,0.0566078839615256,0.0409855438708142,0.0598365180983086,0.053035598186836
0.1491437779520046,0.1698400748886618,0.1309625797474667,0.0337621418333571,0.0642866315652814,0.0805333913670319,0.0648201715147036,0.1422961202006616,0.0590994980163869,0.0345172563968734,0.0535668111621936,0.0459543898266805,0.0558471381966822,0.0398405944601348,0.0588606488294742,0.0529962397021831
0.1488938233702781,0.1705709577616261,0.1295513505482091,0.0333854203335182,0.0618960851056573,0.0782556580540468,0.0655989008114778,0.1402564315652438,0.0633698001223565,0.0357949708637517,0.0532546834712065,0.0460285740528774,0.0554042145265718,0.038844757952698,0.057479355828988,0.0529758807412238
0.1497523955373264,0.1716654484898263,0.1283760521217904,0.0332163822116815,0.0600727794818107,0.0767597323923092,0.0670587394557427,0.1405266896654091,0.0680471258317566,0.03748138618999,0.0531479460265106,0.0461092032730637,0.055065441569904,0.0381298682736,0.0559193478911967,0.0530963295995825
0.1508833808511782,0.1722969705305651,0.1270683145574523,0.0331630316831295,0.0588421547906732,0.0758479242539186,0.0687727331744719,0.1423726991506933,0.0725712273527695,0.0392764649040765,0.0530880694841085,0.0461574214818046,0.054646383938179,0.0377524937226342,0.0544333695378639,0.0533902065618399
0.151370594194726,0.171704773407626,0.1253539082462413,0.0330910135555476,0.0580301441182302,0.0752877098892006,0.0702582274639497,0.1445847405017696,0.0764779214383677,0.0409791291089369,0.053028615086959,0.0462182141298841,0.0541218997734542,0.0377413839706624,0.0532452840144395,0.0537884646091408
0.1506320147311193,0.1698657263381127,0.1233485776784415,0.0329056299385652,0.0575234808692004,0.0748527263146007,0.0711638880702695,0.1460254514209959,0.0795320508604378,0.042493358621801,0.0529141717992122,0.0463615233881433,0.0535131951624926,0.0381355116029867,0.0525006868924778,0.0541652126274911
0.1488559621008183,0.1672357962878811,0.121467826699438,0.0325897083426981,0.0572779805091953,0.0742156522895155,0.0713742923170512,0.1463131551963291,0.0817043199139706,0.0437677355063631,0.0527157579931973,0.0465817407684149,0.0528576978569423,0.0388876608753464,0.0522570956745251,0.0543948207912658
0.1464758661992995,0.1640586550524809,0.1199712962921338,0.0321815537143265,0.0571950512254207,0.0732686555487449,0.0709680718723151,0.1460846842787649,0.0830627380038133,0.0447829585763224,0.0524658011704436,0.0469190028661472,0.052167542611401,0.0399339560654905,0.052464325612146,0.0544218091545542
0.1440933001462822,0.1604761772507865,0.1187528674582414,0.0317647237443727,0.0570322250486061,0.0720577229430081,0.0700151488353982,0.1462599227344954,0.0836480190052442,0.0454789971516848,0.0521890074759717,0.047366780989717,0.0514572677929782,0.0412003156221397,0.052980456523359,0.0542755127309628
0.1420284929300393,0.1566239967758193,0.1176608575336665,0.0313789311702841,0.0566088145140408,0.0706992165705899,0.0686131719487999,0.1475084336305818,0.0834922075925566,0.0458278309477959,0.0519507373105894,0.0478574722842008,0.0507840098179844,0.042566230536646,0.053770405440667,0.0540948906969126
0.140348943147109,0.1530997878578384,0.1168666105110396,0.0310565359993319,0.0559302532883653,0.0691522211643848,0.0668947085160591,0.1496709936881243,0.0827873624999914,0.0458335000497262,0.0518882561399469,0.0483698261069724,0.0501912860522131,0.043958858056679,0.0548614353794293,0.0539551800005711
0.1391213435803563,0.1506057767421436,0.116451114319736,0.0308515617329755,0.0550731139677503,0.0671971736234584,0.0649406859666815,0.151922284751358,0.0817472296619095,0.0455747173064769,0.0521315085834202,0.0489217923641983,0.0497290204625811,0.0453480242140799,0.0562000647655915,0.0538199138296727
0.1382136353482692,0.1497391649950862,0.1163279731540584,0.0307450640928974,0.0542510758554293,0.0646592419007205,0.0627507697269584,0.1533193103261717,0.0804426510053214,0.0452346778576476,0.0527462768103916,0.0495720496154074,0.0495029353998593,0.0467693232373345,0.0577049246819352,0.0536378137487653
0.1375972767664045,0.1507626858011078,0.1164741226621005,0.0306542369260536,0.0537683871460409,0.0616026141732748,0.0602798373348615,0.1530675439898138,0.0788857899164569,0.0449562352014485,0.0537916948123464,0.0503656491834104,0.0496335627968498,0.0482511194081332,0.0593767753245976,0.053387577417054
0.1376473247331593,0.1533913528011365,0.1167024024500087,0.0305899598073711,0.0537959073613037,0.0583440128606557,0.0576828710051756,0.1507583887771064,0.0772269652622324,0.0447628807448289,0.055245219429316,0.0512954531264983,0.0502109337241933,0.0496996691252647,0.0611790841877275,0.0530163042127156
0.138552418580987,0.1566067878178461,0.1167989321517101,0.0305457169556827,0.0542939241722622,0.055291057733388,0.0553625211823759,0.1467925290703834,0.0755200730010553,0.0446077689820038,0.0569696384239114,0.052339102575536,0.0512755417080234,0.0510492947883245,0.0631156025600177,0.0524123638590564
0.1398246522610494,0.1592847902600929,0.1166299982568749,0.0304068229497472,0.0549670856233788,0.0527182446944953,0.0535998898124658,0.1418792083965617,0.073728867939755,0.0444080537741639,0.0588306050382081,0.0534526837385824,0.0528040289892311,0.0523852528351333,0.0653919897484738,0.0514767105234427
0.1403795953272888,0.160841289815368,0.1161636280311024,0.0300661305915967,0.0553836956487505,0.0506875143960455,0.0523750751396011,0.1364809563886241,0.0719021800276139,0.0440656197092429,0.0606736236644593,0.0545765116826288,0.0547289782671409,0.0538180881171955,0.0681711959993136,0.0502053138204659
0.1393815370910748,0.1615871878832923,0.1156623417867065,0.0294688827577699,0.0553053974130449,0.0491040104800093,0.0515069315984075,0.1309561092350611,0.0702362578787873,0.043527564645759,0.062271066042439,0.055669459764367,0.0569191304649645,0.0554181825862031,0.0715693055172137,0.048743297535579
0.1367671238139271,0.1620865366009364,0.1153696921121768,0.02867011227134,0.0547878072094524,0.0477236966505527,0.0508396459842005,0.1257985815846287,0.068959835738617,0.0428121906414088,0.0634781347233582,0.0566964318676569,0.0591456956628728,0.057229633518106,0.0756055037318716,0.0472621366068589
0.1329519604989791,0.1626302095420261,0.1153263534776194,0.0277891197813554,0.053928362874631,0.0462809451603263,0.0503024074341979,0.1215524431521081,0.0681304404969283,0.041977758605619,0.064307716075501,0.0576564290684303,0.0611021918024492,0.05934547143167,0.0802398655180384,0.0460369631689085
0.1286418592641067,0.1632368368748072,0.1154371142923998,0.0269159366326678,0.0528360415212062,0.0445356913736239,0.0498218139745231,0.1184280664890867,0.0676853461159018,0.0410893517840339,0.0648299731852383,0.0585000524621335,0.062477283197413,0.061788694147291,0.0854306019305921,0.0453003199081411
0.1247746087969958,0.1639173991446101,0.1155154796214381,0.0261518430454058,0.0517393641608055,0.0424955088140335,0.0493174422976524,0.116416668024931,0.0676458139580011,0.0402483098846906,0.0650637443451092,0.0591751523864147,0.0631847010673746,0.0644850886566806,0.0910871407102597,0.0451305942953044
0.1220288953102716,0.1649671691955745,0.1154525439652122,0.0255791220257583,0.0509260433806289,0.0404159732584228,0.0487080730704903,0.1154026826286519,0.0679432853576507,0.0395422786263443,0.0648680053379856,0.0596948898415033,0.0634611450902733,0.0674024910452204,0.0971784434349539,0.045482869864207
0.1206041930291401,0.166845358556698,0.115545214783584,0.0252538239487317,0.0504839766964236,0.0385431202188273,0.0478776902076516,0.1152336260983191,0.0684794273271376,0.0389927251350045,0.0639793359597432,0.0600629132954648,0.0636488138289762,0.070507172860264,0.1036374673241693,0.0462184956276427
0.1203862496310466,0.1698076397443311,0.1159993289080061,0.0251689715999351,0.050280676106845,0.0369916434291796,0.0467722741093173,0.1158032860554642,0.0691858393144167,0.0385598769832799,0.0623467379525247,0.0602521066800187,0.0640380609153023,0.0737694654169602,0.1102359917872276,0.0470880392716028
0.1211220651963563,0.1736229784411746,0.1168201371642638,0.0252758929780006,0.0500435554241082,0.0358240520162322,0.0455415776781389,0.1169492947213737,0.0700265122017253,0.0381855260816981,0.0601121234090644,0.0601930583080874,0.0648466227230828,0.0770734803111753,0.1165599965892026,0.047840941766178
0.1226263636710957,0.1781445386974116,0.11818808214169,0.0255155207951729,0.0495606792901077,0.035002078005208,0.0443305234731317,0.118124485501175,0.0709925626202381,0.0378558566891283,0.0574411143195539,0.0598310320844003,0.066170500163031,0.0803253942629427,0.1223245769025,0.0483161010021197
0.12470250541908,0.1831973635946538,0.120071827144782,0.0259436416077916,0.048860263881813,0.0344325261453121,0.0432052391000516,0.1186620959491299,0.0721030426568161,0.0376268451812149,0.0545299834661885,0.0592331692372526,0.0679717057329838,0.0836403367709574,0.1273479011298995,0.0484615377562876
0.1269288166845258,0.1885442523483328,0.1222101665068463,0.0265842192601432,0.0480619732507807,0.0341114502399707,0.0421947283872116,0.1180413853409017,0.0732674494532518,0.0375348565989183,0.051577425166562,0.0585300853728117,0.0700381768876515,0.0872752043330333,0.1315819793815013,0.0482870758748581
0.1290791567556128,0.1941365531000204,0.1244749165607555,0.0273697258457058,0.0473084875730069,0.0340136778239609,0.0412969232259515,0.1158885678915574,0.0742334027330579,0.0375516665704043,0.0488132547232425,0.057820014812946,0.0720749749450152,0.0916232310930393,0.1352543239330733,0.0478071710556485
0.1309712132714653,0.1998091860617288,0.1266953952609538,0.0281773183398716,0.0467432888772383,0.0339916464259964,0.0405124311448719,0.1121754487834604,0.074737007331747,0.0375809484910272,0.0464716232340262,0.0572427415107839,0.0737417310430908,0.0969030885365151,0.1385783192820023,0.0470739781399956
0.1326075720167283,0.2053795869316751,0.1287018218312386,0.0288697839016608,0.0464360108662817,0.0338659299016764,0.0398591656818402,0.1071675340807901,0.0746097786556855,0.0375701893684574,0.0447200931306948,0.0569129982979256,0.0748711528048902,0.1031063016768399,0.1416384992767529,0.0461037537772531
0.1341064382144908,0.2105704616899094,0.1304549731037665,0.0294065195347074,0.0463301701442173,0.0335553621881098,0.0393940304053279,0.1012894802478944,0.0739540034532014,0.0375927632317221,0.0436656241786519,0.0569537495971496,0.0755753435298068,0.1102101053605034,0.1446062106633365,0.0449813184691845
0.1355964816859976,0.2149743529781882,0.1316633017744662,0.029850894347498,0.0464249822539336,0.033086405160418,0.0391742716077344,0.0951603386312486,0.07309778859345,0.0376843198979203,0.0433246757370375,0.0574762079649717,0.0761801270061364,0.1180358981660914,0.1476377460618592,0.0439064532390551
0.1371497439149303,0.2183703983915512,0.1325003850396141,0.0302837317454287,0.0468030173016722,0.0325075124801208,0.0391601009411138,0.0893871455057981,0.0721598762714484,0.0377867100576263,0.0435731847104841,0.0584958781535081,0.0771375956199888,0.1261493160281471,0.1507303071030907,0.0430414846758187
0.1389954306821648,0.2206218781629004,0.1331362233965,0.0307077888416258,0.0474702663877397,0.0318538667261192,0.039242266262954,0.0842357491237649,0.0711374933634488,0.0378509890616693,0.0442182485548828,0.0599376798054726,0.0787021072405568,0.133919739881699,0.153921013342364,0.0424365957044436
0.1416474996314693,0.2213363348997531,0.1334349063608594,0.0310442451600505,0.0484091588587134,0.0312191144371154,0.0393561303034321,0.0797298105062963,0.0699643298847286,0.0378194417737004,0.045068521824311,0.0616420701078973,0.0806895461957001,0.1402620047993893,0.1570836466418453,0.0420595739195786
0.1457694069868237,0.2199550867285278,0.1333399463017107,0.0311934347489612,0.0495271606952592,0.0307383631092484,0.0395225087016809,0.0759267152884299,0.0685444643007782,0.0376320621598341,0.0459357930317741,0.063354075712181,0.0826104163557001,0.144093394387619,0.1599989946659479,0.0418454251988945
0.1519878368467489,0.2166109208534536,0.1331638919076064,0.0310763056385115,0.0507311100830137,0.0304752911274754,0.0397085179560833,0.0727529293738996,0.0669152368084421,0.0373084558859689,0.0467340753152829,0.0648714449321386,0.0839762753193235,0.1451114602829792,0.1626645250613247,0.0417210505887829
0.1604213137332893,0.2120453876183882,0.1330403751038086,0.0307054771879852,0.0519269643299061,0.0303739073163414,0.0397789809553789,0.0698178410338488,0.065263887416717,0.0368837981512695,0.0474486601145551,0.0661018334006029,0.0844873005814349,0.143877714659556,0.1652896478902978,0.0416914318289391
0.1704102172355927,0.2065615408434789,0.1326742118661693,0.0301492750244705,0.0529359815710869,0.0303594397039963,0.0396267959186988,0.0670071275103277,0.0636831264030946,0.0363758112595245,0.0481116526874055,0.0670245298691545,0.0841249547553652,0.1410661614405567,0.167626294367407,0.0417177086428508
0.1809631628355662,0.2003321376159116,0.1315542336507788,0.0294701256203416,0.0535663739930436,0.0304083785289873,0.0392069872647096,0.0642604065552937,0.0621238994611704,0.0358857561672798,0.0487086296855978,0.0676990868042903,0.0832272658862805,0.1373266433157147,0.1692868424528184,0.0416969115361431
0.1913369440543504,0.1937098540236912,0.1295356632402216,0.0288201379008218,0.0537254552533449,0.0305258987213775,0.0386103855214052,0.061646437366711,0.0605604242910439,0.0355015289414447,0.049226508541973,0.068295308753336,0.0820946507896902,0.1334769173537434,0.1701726009258677,0.0415807603669159
0.2006590635449196,0.1872670653634747,0.1267037840681021,0.0283529684749128,0.0534305280443102,0.0307351213773915,0.0380340357055531,0.0592953655582876,0.0590310303638063,0.0352343733331898,0.0496359216506614,0.0689338686888454,0.0808136598412657,0.1301671558990145,0.1702454295119261,0.0413339900448634
0.2080589781638969,0.1813438099830971,0.1234090997041414,0.02819975896489,0.0527893405186336,0.0310823721580309,0.0376195606676689,0.0573471475785578,0.0574593481999068,0.0350791158140667,0.049951311318852,0.0696649957942441,0.0792471635762848,0.1276664874554217,0.1697596930027566,0.0409340932253425
0.2131661506571815,0.1755282902149168,0.1200977711614008,0.0283658580405786,0.0518431236480065,0.0315939227673517,0.0374751745571672,0.0558546285406207,0.0557816529712274,0.0350480675451319,0.0503495880146994,0.0705090647370249,0.0771459150255333,0.125965100165271,0.1690592175048823,0.0403733065563816
0.2161449157402508,0.1692454465688578,0.1170547503059895,0.0287928244055649,0.0506938544391014,0.0322777910162068,0.0376353749439274,0.0548046011004551,0.0540013324861595,0.0351497281378144,0.0509791484941847,0.0714246728694423,0.0743521042738044,0.1248431477575176,0.1682790608287003,0.0397350375926072
0.2174191098337431,0.1621103425810281,0.1140645415167618,0.0295002068538288,0.0493265458277489,0.0331225632493678,0.0380810259244387,0.0541318758365716,0.0521676881525729,0.0353987036487098,0.0519121732948022,0.0722907752753328,0.0709391206476303,0.1238271656222572,0.1672913518155497,0.0391683103008125
0.2167009549675977,0.1538039940564085,0.1107094148851489,0.0305750545036421,0.0475740168929158,0.034093888091094,0.0387780253985514,0.0536796368502416,0.0503913935443873,0.0357790727279295,0.0531268862674962,0.0730783233218985,0.0671552958719159,0.1222416420440659,0.1654080261854845,0.0387836626667537
0.2134736043737663,0.1446869580031667,0.1067405906552263,0.032097533408807,0.0454508043305133,0.0351323557565527,0.0396432307328488,0.0533864260167423,0.0486936969303549,0.0362033193883824,0.0544761443778464,0.073896752128924,0.0632025371896412,0.1194014062998079,0.1618023181328608,0.0386579538594718
0.2076531177215774,0.1354680908963072,0.1024761919333747,0.0341275189843792,0.0431089764362996,0.0361889636814865,0.0405572727218823,0.0533039871730122,0.0470230433380793,0.0365422080085176,0.0558095005239216,0.0747947992202905,0.0593760037607526,0.1148610229327053,0.1557884399372836,0.0388219627883788
0.1993979928700983,0.1266563680889207,0.0982737409849398,0.0366582709898952,0.0406657932950253,0.037176930853315,0.0413238424668188,0.0535217712751964,0.0452467677438238,0.036684826440446,0.0569667450568682,0.0758182185816705,0.0560990434574589,0.1084800058948508,0.1473277614760135,0.039290423840921
0.1889112397704382,0.1183399709737613,0.0941662908694201,0.0395926767197231,0.0381155191837351,0.0379730042610791,0.0418215578235746,0.0540048355935635,0.0433182541695137,0.03661917340132,0.0578653824756886,0.0769903461513142,0.0538050440198603,0.1004569773618067,0.1369753652873361,0.0400917555334662
0.1767206987475187,0.1101733133614369,0.0899249451496912,0.042819403400111,0.0353804320747269,0.0384410824586348,0.0420582636070692,0.0547014207404681,0.041384054813329,0.036442720279271,0.0585574130648773,0.0783589264503657,0.0529161219106727,0.0913560644211659,0.1253362005470914,0.0412129136863306
0.1631524971398032,0.101781711451328,0.0851961588610634,0.0462644148687315,0.0324055742567029,0.038494495117768,0.0420636490945478,0.0555248323142691,0.0395937197265037,0.0362671985652779,0.0591654816834632,0.0800145180709326,0.0538539428374682,0.0818550414137495,0.1128010091415921,0.0425915211196168
0.1484877868055366,0.093193843688611,0.0798384806379425,0.0498660602259807,0.0293414499896291,0.0381437310630696,0.0417501515951438,0.0564132505174005,0.0380037647852427,0.0361875279322457,0.059760666475347,0.0819314249774814,0.0569382106360164,0.0726128916321015,0.0998907957307274,0.0441539447991194
0.133282209283304,0.0846654410659073,0.0738250796844131,0.0535114967055581,0.0264063423380246,0.0374620528542178,0.0410575835907224,0.0574062311825151,0.0365483399645995,0.0362827105744927,0.0602897803761961,0.0839875186949812,0.0623484701956569,0.0642788760448329,0.0872852568881397,0.0458142374005215
0.1182260284482797,0.0762734049901846,0.0671496221188361,0.0570184407297317,0.0238320656934909,0.036525914347086,0.0400577624309719,0.0584437042072437,0.0350866780546434,0.0365906124533127,0.0606055346157956,0.0859487121070645,0.0700466013223384,0.0572637830569694,0.0755955471527482,0.0475030907806343
0.1037998774296551,0.0680613303848562,0.0599283991741887,0.0601625277302554,0.021876489346452,0.0353787504184184,0.038861744927459,0.0593239360017291,0.0335435420486219,0.037097587254122,0.0605786180262732,0.0874652176952992,0.0797807720259539,0.0517271549536359,0.065292615544157,0.0491709301054007
0.090194836616366,0.0600956744795754,0.0523876948648565,0.0626890098723161,0.0208351029707355,0.0341305486871611,0.0375522082583223,0.0597783434755927,0.0320183007248749,0.0377336891984696,0.0601820434645507,0.0881527972073661,0.0910786678349995,0.0476543850620976,0.056649050844581,0.0507991043277273
0.0773146048917951,0.0523893427901285,0.0447599368777012,0.064364964856288,0.0210036832310955,0.0328879161232254,0.0362102928713339,0.0596296136110399,0.0306514497182837,0.0383919961997107,0.0594571405419077,0.0876830673404039,0.1032344019878743,0.0449073340570722,0.0497272508720271,0.0523525549488749
